5.008355630 1719.0
5.025066899 1766.0
5.041778168 1688.0
5.058489437 1719.0
5.075200706 1648.0
5.091911975 1717.0
5.108623244 1781.0
5.125334513 1708.0
5.142045782 1714.0
5.158757051 1654.0
5.175468320 1679.0
5.192179589 1626.0
5.208890858 1676.0
5.225602127 1674.0
5.242313396 1602.0
5.259024665 1700.0
5.275735934 1594.0
5.292447203 1578.0
5.309158472 1604.0
5.325869741 1583.0
5.342581010 1634.0
5.359292279 1630.0
5.376003547 1596.0
5.392714816 1583.0
5.409426085 1638.0
5.426137354 1568.0
5.442848623 1606.0
5.459559892 1561.0
5.476271161 1555.0
5.492982430 1500.0
5.509693699 1588.0
5.526404968 1624.0
5.543116237 1566.0
5.559827506 1526.0
5.576538775 1574.0
5.593250044 1502.0
5.609961313 1592.0
5.626672582 1514.0
5.643383851 1590.0
5.660095120 1611.0
5.676806389 1569.0
5.693517658 1518.0
5.710228927 1447.0
5.726940196 1515.0
5.743651465 1517.0
5.760362734 1561.0
5.777074003 1490.0
5.793785272 1488.0
5.810496541 1473.0
5.827207810 1461.0
5.843919079 1420.0
5.860630348 1497.0
5.877341617 1486.0
5.894052886 1444.0
5.910764155 1455.0
5.927475424 1476.0
5.944186693 1464.0
5.960897962 1449.0
5.977609231 1405.0
5.994320500 1467.0
6.011031769 1465.0
6.027743038 1422.0
6.044454307 1404.0
6.061165576 1368.0
6.077876845 1395.0
6.094588114 1411.0
6.111299382 1346.0
6.128010651 1439.0
6.144721920 1404.0
6.161433189 1350.0
6.178144458 1373.0
6.194855727 1376.0
6.211566996 1377.0
6.228278265 1375.0
6.244989534 1322.0
6.261700803 1407.0
6.278412072 1357.0
6.295123341 1394.0
6.311834610 1348.0
6.328545879 1294.0
6.345257148 1289.0
6.361968417 1314.0
6.378679686 1364.0
6.395390955 1332.0
6.412102224 1227.0
6.428813493 1344.0
6.445524762 1312.0
6.462236031 1325.0
6.478947300 1256.0
6.495658569 1265.0
6.512369838 1323.0
6.529081107 1392.0
6.545792376 1239.0
6.562503645 1334.0
6.579214914 1299.0
6.595926183 1268.0
6.612637452 1306.0
6.629348721 1345.0
6.646059990 1286.0
6.662771259 1244.0
6.679482528 1318.0
6.696193797 1258.0
6.712905066 1219.0
6.729616335 1229.0
6.746327604 1238.0
6.763038873 1261.0
6.779750142 1229.0
6.796461411 1247.0
6.813172680 1244.0
6.829883949 1253.0
6.846595218 1304.0
6.863306486 1292.0
6.880017755 1232.0
6.896729024 1177.0
6.913440293 1209.0
6.930151562 1210.0
6.946862831 1251.0
6.963574100 1216.0
6.980285369 1259.0
6.996996638 1222.0
7.013707907 1215.0
7.030419176 1221.0
7.047130445 1171.0
7.063841714 1207.0
7.080552983 1218.0
7.097264252 1152.0
7.113975521 1214.0
7.130686790 1226.0
7.147398059 1171.0
7.164109328 1194.0
7.180820597 1190.0
7.197531866 1151.0
7.214243135 1159.0
7.230954404 1168.0
7.247665673 1181.0
7.264376942 1188.0
7.281088211 1185.0
7.297799480 1115.0
7.314510749 1145.0
7.331222018 1151.0
7.347933287 1155.0
7.364644556 1129.0
7.381355825 1216.0
7.398067094 1166.0
7.414778363 1148.0
7.431489632 1169.0
7.448200901 1170.0
7.464912170 1157.0
7.481623439 1064.0
7.498334708 1127.0
7.515045977 1151.0
7.531757246 1100.0
7.548468515 1140.0
7.565179784 1120.0
7.581891052 1187.0
7.598602321 1146.0
7.615313590 1207.0
7.632024859 1108.0
7.648736128 1140.0
7.665447397 1109.0
7.682158666 1044.0
7.698869935 1062.0
7.715581204 1082.0
7.732292473 1143.0
7.749003742 1081.0
7.765715011 1096.0
7.782426280 1142.0
7.799137549 1079.0
7.815848818 1133.0
7.832560087 1090.0
7.849271356 1107.0
7.865982625 1056.0
7.882693894 1096.0
7.899405163 1147.0
7.916116432 1114.0
7.932827701 1088.0
7.949538970 1140.0
7.966250239 1115.0
7.982961508 1039.0
7.999672777 1096.0
8.016384046 1098.0
8.033095315 1083.0
8.049806584 1074.0
8.066517853 1012.0
8.083229122 1062.0
8.099940391 1100.0
8.116651660 1082.0
8.133362929 1048.0
8.150074198 1053.0
8.166785467 1032.0
8.183496736 1068.0
8.200208005 1085.0
8.216919274 1094.0
8.233630543 1076.0
8.250341812 1128.0
8.267053081 1007.0
8.283764350 1064.0
8.300475619 1049.0
8.317186888 997.0
8.333898156 958.0
8.350609425 942.0
8.367320694 1018.0
8.384031963 1035.0
8.400743232 1030.0
8.417454501 1074.0
8.434165770 979.0
8.450877039 1053.0
8.467588308 974.0
8.484299577 922.0
8.501010846 1019.0
8.517722115 958.0
8.534433384 1018.0
8.551144653 994.0
8.567855922 1049.0
8.584567191 961.0
8.601278460 1004.0
8.617989729 982.0
8.634700998 976.0
8.651412267 1016.0
8.668123536 959.0
8.684834805 1000.0
8.701546074 945.0
8.718257343 978.0
8.734968612 921.0
8.751679881 980.0
8.768391150 945.0
8.785102419 1000.0
8.801813688 925.0
8.818524957 987.0
8.835236226 971.0
8.851947495 924.0
8.868658764 952.0
8.885370033 967.0
8.902081302 984.0
8.918792571 923.0
8.935503840 933.0
8.952215109 955.0
8.968926378 1003.0
8.985637647 942.0
9.002348916 905.0
9.019060185 961.0
9.035771454 951.0
9.052482723 950.0
9.069193991 978.0
9.085905260 934.0
9.102616529 902.0
9.119327798 1000.0
9.136039067 935.0
9.152750336 928.0
9.169461605 921.0
9.186172874 916.0
9.202884143 902.0
9.219595412 883.0
9.236306681 936.0
9.253017950 935.0
9.269729219 969.0
9.286440488 903.0
9.303151757 912.0
9.319863026 883.0
9.336574295 896.0
9.353285564 920.0
9.369996833 826.0
9.386708102 998.0
9.403419371 928.0
9.420130640 871.0
9.436841909 857.0
9.453553178 895.0
9.470264447 954.0
9.486975716 916.0
9.503686985 882.0
9.520398254 883.0
9.537109523 839.0
9.553820792 899.0
9.570532061 862.0
9.587243330 854.0
9.603954599 902.0
9.620665868 875.0
9.637377137 891.0
9.654088406 862.0
9.670799675 888.0
9.687510944 839.0
9.704222213 934.0
9.720933482 843.0
9.737644751 881.0
9.754356020 866.0
9.771067289 894.0
9.787778557 853.0
9.804489826 854.0
9.821201095 831.0
9.837912364 875.0
9.854623633 847.0
9.871334902 861.0
9.888046171 826.0
9.904757440 869.0
9.921468709 853.0
9.938179978 756.0
9.954891247 871.0
9.971602516 818.0
9.988313785 869.0
10.005025054 876.0
10.021736323 813.0
10.038447592 833.0
10.055158861 891.0
10.071870130 817.0
10.088581399 852.0
10.105292668 811.0
10.122003937 873.0
10.138715206 821.0
10.155426475 793.0
10.172137744 778.0
10.188849013 808.0
10.205560282 801.0
10.222271551 799.0
10.238982820 853.0
10.255694089 826.0
10.272405358 846.0
10.289116627 795.0
10.305827896 781.0
10.322539165 829.0
10.339250434 788.0
10.355961703 810.0
10.372672972 732.0
10.389384241 869.0
10.406095510 802.0
10.422806779 760.0
10.439518048 808.0
10.456229317 740.0
10.472940586 792.0
10.489651855 781.0
10.506363124 769.0
10.523074392 798.0
10.539785661 819.0
10.556496930 775.0
10.573208199 796.0
10.589919468 834.0
10.606630737 778.0
10.623342006 739.0
10.640053275 776.0
10.656764544 782.0
10.673475813 738.0
10.690187082 800.0
10.706898351 870.0
10.723609620 838.0
10.740320889 740.0
10.757032158 803.0
10.773743427 772.0
10.790454696 763.0
10.807165965 794.0
10.823877234 760.0
10.840588503 747.0
10.857299772 738.0
10.874011041 752.0
10.890722310 794.0
10.907433579 797.0
10.924144848 722.0
10.940856117 777.0
10.957567386 739.0
10.974278655 746.0
10.990989924 726.0
11.007701193 720.0
11.024412462 820.0
11.041123731 753.0
11.057835000 740.0
11.074546269 721.0
11.091257538 694.0
11.107968807 773.0
11.124680076 787.0
11.141391345 721.0
11.158102614 778.0
11.174813883 748.0
11.191525152 733.0
11.208236421 718.0
11.224947690 722.0
11.241658959 734.0
11.258370228 702.0
11.275081496 749.0
11.291792765 702.0
11.308504034 756.0
11.325215303 774.0
11.341926572 723.0
11.358637841 680.0
11.375349110 686.0
11.392060379 713.0
11.408771648 708.0
11.425482917 738.0
11.442194186 696.0
11.458905455 696.0
11.475616724 662.0
11.492327993 764.0
11.509039262 708.0
11.525750531 681.0
11.542461800 722.0
11.559173069 688.0
11.575884338 723.0
11.592595607 782.0
11.609306876 729.0
11.626018145 662.0
11.642729414 705.0
11.659440683 726.0
11.676151952 678.0
11.692863221 742.0
11.709574490 715.0
11.726285759 643.0
11.742997028 675.0
11.759708297 720.0
11.776419566 713.0
11.793130835 722.0
11.809842104 708.0
11.826553373 737.0
11.843264642 658.0
11.859975911 733.0
11.876687180 656.0
11.893398449 718.0
11.910109718 684.0
11.926820987 672.0
11.943532256 640.0
11.960243525 689.0
11.976954794 681.0
11.993666063 691.0
12.010377331 691.0
12.027088600 746.0
12.043799869 683.0
12.060511138 724.0
12.077222407 732.0
12.093933676 673.0
12.110644945 630.0
12.127356214 680.0
12.144067483 674.0
12.160778752 709.0
12.177490021 635.0
12.194201290 688.0
12.210912559 658.0
12.227623828 626.0
12.244335097 648.0
12.261046366 624.0
12.277757635 718.0
12.294468904 679.0
12.311180173 658.0
12.327891442 672.0
12.344602711 730.0
12.361313980 658.0
12.378025249 665.0
12.394736518 673.0
12.411447787 683.0
12.428159056 635.0
12.444870325 648.0
12.461581594 579.0
12.478292863 643.0
12.495004132 714.0
12.511715401 704.0
12.528426670 715.0
12.545137939 658.0
12.561849208 669.0
12.578560477 723.0
12.595271746 707.0
12.611983015 662.0
12.628694284 646.0
12.645405553 681.0
12.662116822 627.0
12.678828091 681.0
12.695539360 640.0
12.712250629 721.0
12.728961898 695.0
12.745673166 698.0
12.762384435 700.0
12.779095704 678.0
12.795806973 636.0
12.812518242 643.0
12.829229511 652.0
12.845940780 661.0
12.862652049 643.0
12.879363318 626.0
12.896074587 664.0
12.912785856 626.0
12.929497125 669.0
12.946208394 620.0
12.962919663 676.0
12.979630932 608.0
12.996342201 630.0
13.013053470 611.0
13.029764739 615.0
13.046476008 674.0
13.063187277 630.0
13.079898546 704.0
13.096609815 652.0
13.113321084 625.0
13.130032353 650.0
13.146743622 608.0
13.163454891 656.0
13.180166160 643.0
13.196877429 648.0
13.213588698 613.0
13.230299967 638.0
13.247011236 673.0
13.263722505 630.0
13.280433774 611.0
13.297145043 660.0
13.313856312 646.0
13.330567581 580.0
13.347278850 620.0
13.363990119 612.0
13.380701388 616.0
13.397412657 657.0
13.414123926 644.0
13.430835195 624.0
13.447546464 615.0
13.464257733 619.0
13.480969001 636.0
13.497680270 628.0
13.514391539 666.0
13.531102808 643.0
13.547814077 640.0
13.564525346 608.0
13.581236615 631.0
13.597947884 635.0
13.614659153 650.0
13.631370422 621.0
13.648081691 681.0
13.664792960 683.0
13.681504229 691.0
13.698215498 723.0
13.714926767 689.0
13.731638036 703.0
13.748349305 734.0
13.765060574 726.0
13.781771843 753.0
13.798483112 830.0
13.815194381 802.0
13.831905650 799.0
13.848616919 774.0
13.865328188 876.0
13.882039457 887.0
13.898750726 917.0
13.915461995 1007.0
13.932173264 1026.0
13.948884533 1106.0
13.965595802 1082.0
13.982307071 1234.0
13.999018340 1251.0
14.015729609 1358.0
14.032440878 1417.0
14.049152147 1584.0
14.065863416 1759.0
14.082574685 1943.0
14.099285954 2067.0
14.115997223 2176.0
14.132708492 2459.0
14.149419761 2584.0
14.166131030 2651.0
14.182842299 2713.0
14.199553568 2776.0
14.216264836 2599.0
14.232976105 2276.0
14.249687374 2053.0
14.266398643 1781.0
14.283109912 1734.0
14.299821181 1602.0
14.316532450 1315.0
14.333243719 1352.0
14.349954988 1351.0
14.366666257 1289.0
14.383377526 1440.0
14.400088795 1477.0
14.416800064 1610.0
14.433511333 1543.0
14.450222602 1659.0
14.466933871 1736.0
14.483645140 1749.0
14.500356409 1663.0
14.517067678 1544.0
14.533778947 1324.0
14.550490216 1268.0
14.567201485 1135.0
14.583912754 974.0
14.600624023 859.0
14.617335292 726.0
14.634046561 753.0
14.650757830 644.0
14.667469099 640.0
14.684180368 600.0
14.700891637 612.0
14.717602906 572.0
14.734314175 597.0
14.751025444 598.0
14.767736713 584.0
14.784447982 570.0
14.801159251 589.0
14.817870520 599.0
14.834581789 571.0
14.851293058 573.0
14.868004327 621.0
14.884715596 584.0
14.901426865 620.0
14.918138134 616.0
14.934849403 556.0
14.951560671 562.0
14.968271940 591.0
14.984983209 615.0
15.001694478 559.0
15.018405747 561.0
15.035117016 597.0
15.051828285 576.0
15.068539554 590.0
15.085250823 558.0
15.101962092 601.0
15.118673361 612.0
15.135384630 553.0
15.152095899 602.0
15.168807168 611.0
15.185518437 563.0
15.202229706 570.0
15.218940975 578.0
15.235652244 574.0
15.252363513 571.0
15.269074782 551.0
15.285786051 615.0
15.302497320 559.0
15.319208589 631.0
15.335919858 583.0
15.352631127 597.0
15.369342396 599.0
15.386053665 565.0
15.402764934 631.0
15.419476203 631.0
15.436187472 663.0
15.452898741 670.0
15.469610010 655.0
15.486321279 714.0
15.503032548 744.0
15.519743817 767.0
15.536455086 837.0
15.553166355 920.0
15.569877624 926.0
15.586588893 1006.0
15.603300162 1028.0
15.620011431 1127.0
15.636722700 1144.0
15.653433969 1227.0
15.670145238 1367.0
15.686856506 1399.0
15.703567775 1638.0
15.720279044 1873.0
15.736990313 2021.0
15.753701582 2187.0
15.770412851 2415.0
15.787124120 2727.0
15.803835389 3093.0
15.820546658 3326.0
15.837257927 3774.0
15.853969196 4338.0
15.870680465 4856.0
15.887391734 5350.0
15.904103003 5772.0
15.920814272 6128.0
15.937525541 6566.0
15.954236810 6460.0
15.970948079 5982.0
15.987659348 5417.0
16.004370617 4666.0
16.021081886 3974.0
16.037793155 3339.0
16.054504424 2596.0
16.071215693 2041.0
16.087926962 1599.0
16.104638231 1223.0
16.121349500 978.0
16.138060769 844.0
16.154772038 710.0
16.171483307 662.0
16.188194576 661.0
16.204905845 581.0
16.221617114 608.0
16.238328383 575.0
16.255039652 585.0
16.271750921 540.0
16.288462190 552.0
16.305173459 584.0
16.321884728 525.0
16.338595997 557.0
16.355307266 525.0
16.372018535 532.0
16.388729804 508.0
16.405441073 540.0
16.422152341 506.0
16.438863610 527.0
16.455574879 565.0
16.472286148 530.0
16.488997417 521.0
16.505708686 503.0
16.522419955 551.0
16.539131224 502.0
16.555842493 517.0
16.572553762 522.0
16.589265031 489.0
16.605976300 510.0
16.622687569 522.0
16.639398838 516.0
16.656110107 582.0
16.672821376 526.0
16.689532645 515.0
16.706243914 511.0
16.722955183 541.0
16.739666452 587.0
16.756377721 527.0
16.773088990 563.0
16.789800259 540.0
16.806511528 560.0
16.823222797 559.0
16.839934066 552.0
16.856645335 523.0
16.873356604 567.0
16.890067873 597.0
16.906779142 567.0
16.923490411 599.0
16.940201680 637.0
16.956912949 635.0
16.973624218 607.0
16.990335487 686.0
17.007046756 693.0
17.023758025 713.0
17.040469294 777.0
17.057180563 764.0
17.073891832 808.0
17.090603101 843.0
17.107314370 885.0
17.124025639 903.0
17.140736908 832.0
17.157448176 784.0
17.174159445 719.0
17.190870714 704.0
17.207581983 640.0
17.224293252 637.0
17.241004521 580.0
17.257715790 536.0
17.274427059 540.0
17.291138328 507.0
17.307849597 520.0
17.324560866 498.0
17.341272135 512.0
17.357983404 448.0
17.374694673 503.0
17.391405942 510.0
17.408117211 521.0
17.424828480 538.0
17.441539749 485.0
17.458251018 491.0
17.474962287 462.0
17.491673556 452.0
17.508384825 493.0
17.525096094 458.0
17.541807363 487.0
17.558518632 504.0
17.575229901 501.0
17.591941170 495.0
17.608652439 473.0
17.625363708 465.0
17.642074977 497.0
17.658786246 500.0
17.675497515 541.0
17.692208784 481.0
17.708920053 516.0
17.725631322 476.0
17.742342591 500.0
17.759053860 466.0
17.775765129 473.0
17.792476398 491.0
17.809187667 498.0
17.825898936 460.0
17.842610205 443.0
17.859321474 503.0
17.876032743 427.0
17.892744011 486.0
17.909455280 484.0
17.926166549 471.0
17.942877818 438.0
17.959589087 474.0
17.976300356 462.0
17.993011625 479.0
18.009722894 428.0
18.026434163 443.0
18.043145432 462.0
18.059856701 480.0
18.076567970 449.0
18.093279239 461.0
18.109990508 474.0
18.126701777 503.0
18.143413046 459.0
18.160124315 458.0
18.176835584 410.0
18.193546853 470.0
18.210258122 470.0
18.226969391 483.0
18.243680660 475.0
18.260391929 472.0
18.277103198 533.0
18.293814467 505.0
18.310525736 473.0
18.327237005 470.0
18.343948274 446.0
18.360659543 435.0
18.377370812 487.0
18.394082081 489.0
18.410793350 489.0
18.427504619 446.0
18.444215888 462.0
18.460927157 477.0
18.477638426 482.0
18.494349695 502.0
18.511060964 426.0
18.527772233 464.0
18.544483502 483.0
18.561194771 447.0
18.577906040 496.0
18.594617309 448.0
18.611328578 426.0
18.628039846 490.0
18.644751115 470.0
18.661462384 461.0
18.678173653 484.0
18.694884922 482.0
18.711596191 493.0
18.728307460 482.0
18.745018729 501.0
18.761729998 493.0
18.778441267 501.0
18.795152536 518.0
18.811863805 461.0
18.828575074 491.0
18.845286343 523.0
18.861997612 506.0
18.878708881 515.0
18.895420150 505.0
18.912131419 564.0
18.928842688 526.0
18.945553957 560.0
18.962265226 557.0
18.978976495 602.0
18.995687764 589.0
19.012399033 711.0
19.029110302 770.0
19.045821571 703.0
19.062532840 758.0
19.079244109 771.0
19.095955378 773.0
19.112666647 763.0
19.129377916 727.0
19.146089185 695.0
19.162800454 628.0
19.179511723 638.0
19.196222992 534.0
19.212934261 504.0
19.229645530 522.0
19.246356799 492.0
19.263068068 485.0
19.279779337 472.0
19.296490606 515.0
19.313201875 472.0
19.329913144 439.0
19.346624413 480.0
19.363335681 468.0
19.380046950 444.0
19.396758219 418.0
19.413469488 450.0
19.430180757 459.0
19.446892026 465.0
19.463603295 443.0
19.480314564 449.0
19.497025833 437.0
19.513737102 478.0
19.530448371 462.0
19.547159640 428.0
19.563870909 421.0
19.580582178 432.0
19.597293447 439.0
19.614004716 455.0
19.630715985 478.0
19.647427254 441.0
19.664138523 454.0
19.680849792 394.0
19.697561061 443.0
19.714272330 425.0
19.730983599 415.0
19.747694868 429.0
19.764406137 459.0
19.781117406 495.0
19.797828675 448.0
19.814539944 425.0
19.831251213 498.0
19.847962482 431.0
19.864673751 415.0
19.881385020 427.0
19.898096289 450.0
19.914807558 441.0
19.931518827 464.0
19.948230096 529.0
19.964941365 483.0
19.981652634 528.0
19.998363903 464.0
20.015075172 501.0
20.031786441 482.0
20.048497710 499.0
20.065208979 513.0
20.081920248 579.0
20.098631516 583.0
20.115342785 612.0
20.132054054 681.0
20.148765323 706.0
20.165476592 755.0
20.182187861 821.0
20.198899130 883.0
20.215610399 961.0
20.232321668 1030.0
20.249032937 1126.0
20.265744206 1288.0
20.282455475 1342.0
20.299166744 1445.0
20.315878013 1554.0
20.332589282 1653.0
20.349300551 1823.0
20.366011820 1893.0
20.382723089 1887.0
20.399434358 1767.0
20.416145627 1571.0
20.432856896 1488.0
20.449568165 1259.0
20.466279434 1167.0
20.482990703 974.0
20.499701972 855.0
20.516413241 734.0
20.533124510 654.0
20.549835779 538.0
20.566547048 504.0
20.583258317 499.0
20.599969586 451.0
20.616680855 468.0
20.633392124 444.0
20.650103393 491.0
20.666814662 432.0
20.683525931 432.0
20.700237200 433.0
20.716948469 411.0
20.733659738 433.0
20.750371007 388.0
20.767082276 427.0
20.783793545 448.0
20.800504814 413.0
20.817216082 388.0
20.833927351 439.0
20.850638620 418.0
20.867349889 459.0
20.884061158 428.0
20.900772427 463.0
20.917483696 443.0
20.934194965 433.0
20.950906234 435.0
20.967617503 462.0
20.984328772 430.0
21.001040041 455.0
21.017751310 435.0
21.034462579 415.0
21.051173848 446.0
21.067885117 447.0
21.084596386 443.0
21.101307655 449.0
21.118018924 433.0
21.134730193 436.0
21.151441462 452.0
21.168152731 436.0
21.184864000 411.0
21.201575269 478.0
21.218286538 478.0
21.234997807 428.0
21.251709076 450.0
21.268420345 397.0
21.285131614 455.0
21.301842883 435.0
21.318554152 388.0
21.335265421 405.0
21.351976690 456.0
21.368687959 398.0
21.385399228 399.0
21.402110497 424.0
21.418821766 390.0
21.435533035 397.0
21.452244304 416.0
21.468955573 457.0
21.485666842 433.0
21.502378111 454.0
21.519089380 417.0
21.535800649 427.0
21.552511918 404.0
21.569223186 398.0
21.585934455 410.0
21.602645724 454.0
21.619356993 405.0
21.636068262 423.0
21.652779531 427.0
21.669490800 436.0
21.686202069 424.0
21.702913338 421.0
21.719624607 431.0
21.736335876 450.0
21.753047145 429.0
21.769758414 414.0
21.786469683 466.0
21.803180952 436.0
21.819892221 457.0
21.836603490 484.0
21.853314759 447.0
21.870026028 489.0
21.886737297 474.0
21.903448566 503.0
21.920159835 473.0
21.936871104 482.0
21.953582373 502.0
21.970293642 465.0
21.987004911 477.0
22.003716180 486.0
22.020427449 444.0
22.037138718 526.0
22.053849987 440.0
22.070561256 463.0
22.087272525 454.0
22.103983794 441.0
22.120695063 488.0
22.137406332 467.0
22.154117601 504.0
22.170828870 538.0
22.187540139 548.0
22.204251408 567.0
22.220962677 559.0
22.237673946 612.0
22.254385215 653.0
22.271096484 683.0
22.287807753 705.0
22.304519021 772.0
22.321230290 795.0
22.337941559 798.0
22.354652828 801.0
22.371364097 725.0
22.388075366 720.0
22.404786635 669.0
22.421497904 653.0
22.438209173 620.0
22.454920442 621.0
22.471631711 539.0
22.488342980 460.0
22.505054249 516.0
22.521765518 442.0
22.538476787 450.0
22.555188056 411.0
22.571899325 463.0
22.588610594 398.0
22.605321863 426.0
22.622033132 441.0
22.638744401 402.0
22.655455670 431.0
22.672166939 433.0
22.688878208 407.0
22.705589477 433.0
22.722300746 425.0
22.739012015 448.0
22.755723284 412.0
22.772434553 441.0
22.789145822 426.0
22.805857091 416.0
22.822568360 433.0
22.839279629 414.0
22.855990898 430.0
22.872702167 410.0
22.889413436 439.0
22.906124705 418.0
22.922835974 382.0
22.939547243 411.0
22.956258512 434.0
22.972969781 421.0
22.989681050 412.0
23.006392319 442.0
23.023103588 430.0
23.039814856 407.0
23.056526125 415.0
23.073237394 401.0
23.089948663 392.0
23.106659932 402.0
23.123371201 438.0
23.140082470 403.0
23.156793739 392.0
23.173505008 426.0
23.190216277 425.0
23.206927546 454.0
23.223638815 415.0
23.240350084 411.0
23.257061353 416.0
23.273772622 417.0
23.290483891 342.0
23.307195160 462.0
23.323906429 418.0
23.340617698 428.0
23.357328967 423.0
23.374040236 438.0
23.390751505 426.0
23.407462774 461.0
23.424174043 408.0
23.440885312 431.0
23.457596581 439.0
23.474307850 413.0
23.491019119 425.0
23.507730388 414.0
23.524441657 413.0
23.541152926 453.0
23.557864195 402.0
23.574575464 438.0
23.591286733 452.0
23.607998002 446.0
23.624709271 423.0
23.641420540 472.0
23.658131809 446.0
23.674843078 479.0
23.691554347 479.0
23.708265616 483.0
23.724976885 510.0
23.741688154 516.0
23.758399423 486.0
23.775110691 559.0
23.791821960 579.0
23.808533229 663.0
23.825244498 676.0
23.841955767 691.0
23.858667036 704.0
23.875378305 764.0
23.892089574 760.0
23.908800843 756.0
23.925512112 768.0
23.942223381 712.0
23.958934650 704.0
23.975645919 665.0
23.992357188 631.0
24.009068457 583.0
24.025779726 503.0
24.042490995 524.0
24.059202264 477.0
24.075913533 453.0
24.092624802 467.0
24.109336071 462.0
24.126047340 417.0
24.142758609 465.0
24.159469878 436.0
24.176181147 439.0
24.192892416 413.0
24.209603685 452.0
24.226314954 416.0
24.243026223 454.0
24.259737492 440.0
24.276448761 463.0
24.293160030 436.0
24.309871299 426.0
24.326582568 437.0
24.343293837 512.0
24.360005106 462.0
24.376716375 457.0
24.393427644 447.0
24.410138913 476.0
24.426850182 481.0
24.443561451 492.0
24.460272720 560.0
24.476983989 573.0
24.493695258 625.0
24.510406526 658.0
24.527117795 700.0
24.543829064 808.0
24.560540333 948.0
24.577251602 1001.0
24.593962871 1188.0
24.610674140 1284.0
24.627385409 1490.0
24.644096678 1642.0
24.660807947 1820.0
24.677519216 2041.0
24.694230485 2339.0
24.710941754 2481.0
24.727653023 2872.0
24.744364292 3020.0
24.761075561 3490.0
24.777786830 3419.0
24.794498099 3529.0
24.811209368 3569.0
24.827920637 3359.0
24.844631906 3222.0
24.861343175 2752.0
24.878054444 2554.0
24.894765713 2261.0
24.911476982 2039.0
24.928188251 1766.0
24.944899520 1611.0
24.961610789 1540.0
24.978322058 1438.0
24.995033327 1476.0
25.011744596 1362.0
25.028455865 1404.0
25.045167134 1262.0
25.061878403 1301.0
25.078589672 1358.0
25.095300941 1280.0
25.112012210 1222.0
25.128723479 1088.0
25.145434748 969.0
25.162146017 936.0
25.178857286 884.0
25.195568555 748.0
25.212279824 719.0
25.228991093 622.0
25.245702361 563.0
25.262413630 555.0
25.279124899 588.0
25.295836168 551.0
25.312547437 537.0
25.329258706 564.0
25.345969975 605.0
25.362681244 575.0
25.379392513 586.0
25.396103782 714.0
25.412815051 744.0
25.429526320 818.0
25.446237589 908.0
25.462948858 861.0
25.479660127 994.0
25.496371396 1017.0
25.513082665 1048.0
25.529793934 1156.0
25.546505203 1237.0
25.563216472 1163.0
25.579927741 1200.0
25.596639010 1190.0
25.613350279 1028.0
25.630061548 996.0
25.646772817 821.0
25.663484086 747.0
25.680195355 682.0
25.696906624 603.0
25.713617893 566.0
25.730329162 515.0
25.747040431 499.0
25.763751700 483.0
25.780462969 466.0
25.797174238 477.0
25.813885507 489.0
25.830596776 460.0
25.847308045 493.0
25.864019314 470.0
25.880730583 415.0
25.897441852 465.0
25.914153121 427.0
25.930864390 453.0
25.947575659 472.0
25.964286928 459.0
25.980998196 412.0
25.997709465 462.0
26.014420734 457.0
26.031132003 470.0
26.047843272 455.0
26.064554541 458.0
26.081265810 477.0
26.097977079 507.0
26.114688348 527.0
26.131399617 493.0
26.148110886 523.0
26.164822155 571.0
26.181533424 512.0
26.198244693 529.0
26.214955962 585.0
26.231667231 514.0
26.248378500 528.0
26.265089769 552.0
26.281801038 495.0
26.298512307 510.0
26.315223576 556.0
26.331934845 450.0
26.348646114 507.0
26.365357383 455.0
26.382068652 483.0
26.398779921 408.0
26.415491190 435.0
26.432202459 477.0
26.448913728 430.0
26.465624997 428.0
26.482336266 513.0
26.499047535 462.0
26.515758804 516.0
26.532470073 512.0
26.549181342 486.0
26.565892611 504.0
26.582603880 520.0
26.599315149 468.0
26.616026418 534.0
26.632737687 525.0
26.649448956 514.0
26.666160225 584.0
26.682871494 620.0
26.699582763 584.0
26.716294031 585.0
26.733005300 646.0
26.749716569 665.0
26.766427838 743.0
26.783139107 751.0
26.799850376 798.0
26.816561645 796.0
26.833272914 781.0
26.849984183 817.0
26.866695452 847.0
26.883406721 901.0
26.900117990 946.0
26.916829259 915.0
26.933540528 927.0
26.950251797 963.0
26.966963066 966.0
26.983674335 944.0
27.000385604 1041.0
27.017096873 944.0
27.033808142 944.0
27.050519411 899.0
27.067230680 838.0
27.083941949 889.0
27.100653218 775.0
27.117364487 772.0
27.134075756 811.0
27.150787025 730.0
27.167498294 687.0
27.184209563 666.0
27.200920832 632.0
27.217632101 653.0
27.234343370 627.0
27.251054639 613.0
27.267765908 561.0
27.284477177 468.0
27.301188446 509.0
27.317899715 508.0
27.334610984 508.0
27.351322253 513.0
27.368033522 487.0
27.384744791 488.0
27.401456060 483.0
27.418167329 509.0
27.434878598 475.0
27.451589866 478.0
27.468301135 467.0
27.485012404 478.0
27.501723673 424.0
27.518434942 490.0
27.535146211 464.0
27.551857480 452.0
27.568568749 481.0
27.585280018 465.0
27.601991287 468.0
27.618702556 481.0
27.635413825 515.0
27.652125094 554.0
27.668836363 526.0
27.685547632 493.0
27.702258901 536.0
27.718970170 530.0
27.735681439 534.0
27.752392708 530.0
27.769103977 531.0
27.785815246 564.0
27.802526515 562.0
27.819237784 527.0
27.835949053 542.0
27.852660322 510.0
27.869371591 538.0
27.886082860 531.0
27.902794129 477.0
27.919505398 481.0
27.936216667 516.0
27.952927936 485.0
27.969639205 497.0
27.986350474 444.0
28.003061743 455.0
28.019773012 503.0
28.036484281 473.0
28.053195550 499.0
28.069906819 474.0
28.086618088 465.0
28.103329357 493.0
28.120040626 483.0
28.136751895 484.0
28.153463164 460.0
28.170174433 492.0
28.186885701 525.0
28.203596970 483.0
28.220308239 472.0
28.237019508 465.0
28.253730777 446.0
28.270442046 517.0
28.287153315 490.0
28.303864584 498.0
28.320575853 539.0
28.337287122 511.0
28.353998391 505.0
28.370709660 541.0
28.387420929 526.0
28.404132198 574.0
28.420843467 574.0
28.437554736 573.0
28.454266005 617.0
28.470977274 690.0
28.487688543 685.0
28.504399812 787.0
28.521111081 831.0
28.537822350 876.0
28.554533619 1008.0
28.571244888 1178.0
28.587956157 1338.0
28.604667426 1528.0
28.621378695 1684.0
28.638089964 1942.0
28.654801233 2305.0
28.671512502 2661.0
28.688223771 3035.0
28.704935040 3549.0
28.721646309 3925.0
28.738357578 4478.0
28.755068847 4856.0
28.771780116 5558.0
28.788491385 5882.0
28.805202654 6436.0
28.821913923 7000.0
28.838625192 7226.0
28.855336461 7779.0
28.872047730 8113.0
28.888758999 8547.0
28.905470268 8760.0
28.922181536 9108.0
28.938892805 9234.0
28.955604074 9859.0
28.972315343 9932.0
28.989026612 10041.0
29.005737881 10340.0
29.022449150 10443.0
29.039160419 10718.0
29.055871688 10355.0
29.072582957 10178.0
29.089294226 9601.0
29.106005495 9114.0
29.122716764 8016.0
29.139428033 7178.0
29.156139302 6051.0
29.172850571 5182.0
29.189561840 4582.0
29.206273109 3739.0
29.222984378 3317.0
29.239695647 2832.0
29.256406916 2712.0
29.273118185 2454.0
29.289829454 2298.0
29.306540723 2198.0
29.323251992 2198.0
29.339963261 2189.0
29.356674530 2048.0
29.373385799 2045.0
29.390097068 1762.0
29.406808337 1710.0
29.423519606 1534.0
29.440230875 1368.0
29.456942144 1417.0
29.473653413 1288.0
29.490364682 1225.0
29.507075951 1223.0
29.523787220 1254.0
29.540498489 1292.0
29.557209758 1381.0
29.573921027 1372.0
29.590632296 1402.0
29.607343565 1440.0
29.624054834 1410.0
29.640766103 1454.0
29.657477371 1472.0
29.674188640 1334.0
29.690899909 1427.0
29.707611178 1308.0
29.724322447 1195.0
29.741033716 1090.0
29.757744985 963.0
29.774456254 846.0
29.791167523 832.0
29.807878792 723.0
29.824590061 720.0
29.841301330 662.0
29.858012599 670.0
29.874723868 657.0
29.891435137 596.0
29.908146406 658.0
29.924857675 660.0
29.941568944 713.0
29.958280213 753.0
29.974991482 764.0
29.991702751 793.0
30.008414020 776.0
30.025125289 780.0
30.041836558 831.0
30.058547827 808.0
30.075259096 783.0
30.091970365 702.0
30.108681634 712.0
30.125392903 648.0
30.142104172 637.0
30.158815441 673.0
30.175526710 602.0
30.192237979 556.0
30.208949248 653.0
30.225660517 597.0
30.242371786 602.0
30.259083055 601.0
30.275794324 661.0
30.292505593 659.0
30.309216862 601.0
30.325928131 700.0
30.342639400 676.0
30.359350669 673.0
30.376061938 624.0
30.392773206 675.0
30.409484475 615.0
30.426195744 678.0
30.442907013 683.0
30.459618282 646.0
30.476329551 669.0
30.493040820 674.0
30.509752089 680.0
30.526463358 723.0
30.543174627 658.0
30.559885896 717.0
30.576597165 705.0
30.593308434 744.0
30.610019703 727.0
30.626730972 788.0
30.643442241 825.0
30.660153510 847.0
30.676864779 860.0
30.693576048 883.0
30.710287317 961.0
30.726998586 958.0
30.743709855 1032.0
30.760421124 1125.0
30.777132393 1201.0
30.793843662 1273.0
30.810554931 1312.0
30.827266200 1405.0
30.843977469 1494.0
30.860688738 1588.0
30.877400007 1759.0
30.894111276 1908.0
30.910822545 2049.0
30.927533814 2186.0
30.944245083 2358.0
30.960956352 2618.0
30.977667621 2762.0
30.994378890 3140.0
31.011090159 3334.0
31.027801428 3681.0
31.044512697 3842.0
31.061223966 4285.0
31.077935235 4605.0
31.094646504 4831.0
31.111357773 5165.0
31.128069041 5510.0
31.144780310 5798.0
31.161491579 6295.0
31.178202848 6440.0
31.194914117 6787.0
31.211625386 6986.0
31.228336655 7257.0
31.245047924 7457.0
31.261759193 7436.0
31.278470462 7375.0
31.295181731 7238.0
31.311893000 7030.0
31.328604269 6829.0
31.345315538 6530.0
31.362026807 6248.0
31.378738076 5765.0
31.395449345 5585.0
31.412160614 5051.0
31.428871883 4823.0
31.445583152 4295.0
31.462294421 3893.0
31.479005690 3399.0
31.495716959 3192.0
31.512428228 2840.0
31.529139497 2554.0
31.545850766 2265.0
31.562562035 1975.0
31.579273304 1769.0
31.595984573 1641.0
31.612695842 1546.0
31.629407111 1293.0
31.646118380 1219.0
31.662829649 1165.0
31.679540918 1005.0
31.696252187 949.0
31.712963456 933.0
31.729674725 974.0
31.746385994 848.0
31.763097263 764.0
31.779808532 785.0
31.796519801 752.0
31.813231070 736.0
31.829942339 708.0
31.846653608 673.0
31.863364876 672.0
31.880076145 600.0
31.896787414 577.0
31.913498683 598.0
31.930209952 623.0
31.946921221 574.0
31.963632490 558.0
31.980343759 565.0
31.997055028 570.0
32.013766297 569.0
32.030477566 502.0
32.047188835 525.0
32.063900104 535.0
32.080611373 509.0
32.097322642 507.0
32.114033911 526.0
32.130745180 504.0
32.147456449 539.0
32.164167718 567.0
32.180878987 529.0
32.197590256 546.0
32.214301525 542.0
32.231012794 604.0
32.247724063 611.0
32.264435332 585.0
32.281146601 588.0
32.297857870 651.0
32.314569139 671.0
32.331280408 619.0
32.347991677 730.0
32.364702946 704.0
32.381414215 738.0
32.398125484 702.0
32.414836753 769.0
32.431548022 731.0
32.448259291 694.0
32.464970560 606.0
32.481681829 595.0
32.498393098 541.0
32.515104367 548.0
32.531815636 534.0
32.548526905 497.0
32.565238174 500.0
32.581949443 478.0
32.598660711 465.0
32.615371980 500.0
32.632083249 476.0
32.648794518 458.0
32.665505787 504.0
32.682217056 484.0
32.698928325 462.0
32.715639594 504.0
32.732350863 514.0
32.749062132 487.0
32.765773401 497.0
32.782484670 524.0
32.799195939 506.0
32.815907208 542.0
32.832618477 475.0
32.849329746 536.0
32.866041015 478.0
32.882752284 505.0
32.899463553 498.0
32.916174822 528.0
32.932886091 437.0
32.949597360 466.0
32.966308629 465.0
32.983019898 448.0
32.999731167 502.0
33.016442436 481.0
33.033153705 490.0
33.049864974 476.0
33.066576243 463.0
33.083287512 427.0
33.099998781 426.0
33.116710050 416.0
33.133421319 418.0
33.150132588 449.0
33.166843857 447.0
33.183555126 416.0
33.200266395 392.0
33.216977664 427.0
33.233688933 409.0
33.250400202 454.0
33.267111471 441.0
33.283822740 438.0
33.300534009 403.0
33.317245277 406.0
33.333956546 444.0
33.350667815 419.0
33.367379084 448.0
33.384090353 407.0
33.400801622 423.0
33.417512891 402.0
33.434224160 418.0
33.450935429 397.0
33.467646698 424.0
33.484357967 440.0
33.501069236 416.0
33.517780505 378.0
33.534491774 424.0
33.551203043 426.0
33.567914312 396.0
33.584625581 428.0
33.601336850 392.0
33.618048119 397.0
33.634759388 443.0
33.651470657 390.0
33.668181926 392.0
33.684893195 427.0
33.701604464 400.0
33.718315733 391.0
33.735027002 427.0
33.751738271 410.0
33.768449540 418.0
33.785160809 360.0
33.801872078 436.0
33.818583347 423.0
33.835294616 430.0
33.852005885 430.0
33.868717154 386.0
33.885428423 408.0
33.902139692 412.0
33.918850961 427.0
33.935562230 371.0
33.952273499 416.0
33.968984768 427.0
33.985696037 444.0
34.002407306 418.0
34.019118575 391.0
34.035829844 472.0
34.052541113 422.0
34.069252381 426.0
34.085963650 428.0
34.102674919 388.0
34.119386188 406.0
34.136097457 399.0
34.152808726 375.0
34.169519995 391.0
34.186231264 404.0
34.202942533 385.0
34.219653802 425.0
34.236365071 378.0
34.253076340 413.0
34.269787609 438.0
34.286498878 413.0
34.303210147 416.0
34.319921416 411.0
34.336632685 417.0
34.353343954 414.0
34.370055223 404.0
34.386766492 418.0
34.403477761 375.0
34.420189030 412.0
34.436900299 448.0
34.453611568 388.0
34.470322837 448.0
34.487034106 401.0
34.503745375 432.0
34.520456644 418.0
34.537167913 443.0
34.553879182 461.0
34.570590451 446.0
34.587301720 429.0
34.604012989 439.0
34.620724258 427.0
34.637435527 476.0
34.654146796 501.0
34.670858065 479.0
34.687569334 484.0
34.704280603 502.0
34.720991872 470.0
34.737703141 501.0
34.754414410 522.0
34.771125679 465.0
34.787836948 507.0
34.804548216 498.0
34.821259485 532.0
34.837970754 480.0
34.854682023 567.0
34.871393292 556.0
34.888104561 551.0
34.904815830 529.0
34.921527099 525.0
34.938238368 497.0
34.954949637 458.0
34.971660906 451.0
34.988372175 442.0
35.005083444 409.0
35.021794713 394.0
35.038505982 431.0
35.055217251 399.0
35.071928520 398.0
35.088639789 402.0
35.105351058 427.0
35.122062327 382.0
35.138773596 390.0
35.155484865 416.0
35.172196134 421.0
35.188907403 433.0
35.205618672 413.0
35.222329941 387.0
35.239041210 441.0
35.255752479 430.0
35.272463748 453.0
35.289175017 431.0
35.305886286 454.0
35.322597555 451.0
35.339308824 457.0
35.356020093 430.0
35.372731362 467.0
35.389442631 497.0
35.406153900 474.0
35.422865169 453.0
35.439576438 471.0
35.456287707 499.0
35.472998976 457.0
35.489710245 437.0
35.506421514 474.0
35.523132783 440.0
35.539844051 412.0
35.556555320 404.0
35.573266589 428.0
35.589977858 414.0
35.606689127 418.0
35.623400396 408.0
35.640111665 376.0
35.656822934 401.0
35.673534203 412.0
35.690245472 363.0
35.706956741 356.0
35.723668010 410.0
35.740379279 383.0
35.757090548 414.0
35.773801817 387.0
35.790513086 385.0
35.807224355 398.0
35.823935624 405.0
35.840646893 441.0
35.857358162 412.0
35.874069431 437.0
35.890780700 379.0
35.907491969 398.0
35.924203238 383.0
35.940914507 443.0
35.957625776 415.0
35.974337045 343.0
35.991048314 407.0
36.007759583 394.0
36.024470852 401.0
36.041182121 387.0
36.057893390 413.0
36.074604659 398.0
36.091315928 396.0
36.108027197 406.0
36.124738466 396.0
36.141449735 404.0
36.158161004 400.0
36.174872273 410.0
36.191583542 413.0
36.208294811 397.0
36.225006080 393.0
36.241717349 407.0
36.258428618 406.0
36.275139886 428.0
36.291851155 438.0
36.308562424 416.0
36.325273693 441.0
36.341984962 450.0
36.358696231 455.0
36.375407500 455.0
36.392118769 437.0
36.408830038 493.0
36.425541307 515.0
36.442252576 531.0
36.458963845 553.0
36.475675114 565.0
36.492386383 551.0
36.509097652 512.0
36.525808921 582.0
36.542520190 580.0
36.559231459 526.0
36.575942728 529.0
36.592653997 551.0
36.609365266 474.0
36.626076535 475.0
36.642787804 467.0
36.659499073 504.0
36.676210342 492.0
36.692921611 488.0
36.709632880 535.0
36.726344149 463.0
36.743055418 511.0
36.759766687 552.0
36.776477956 501.0
36.793189225 511.0
36.809900494 530.0
36.826611763 501.0
36.843323032 441.0
36.860034301 460.0
36.876745570 436.0
36.893456839 418.0
36.910168108 415.0
36.926879377 417.0
36.943590646 392.0
36.960301915 421.0
36.977013184 419.0
36.993724453 386.0
37.010435721 415.0
37.027146990 382.0
37.043858259 384.0
37.060569528 341.0
37.077280797 391.0
37.093992066 384.0
37.110703335 387.0
37.127414604 378.0
37.144125873 381.0
37.160837142 391.0
37.177548411 382.0
37.194259680 404.0
37.210970949 378.0
37.227682218 374.0
37.244393487 354.0
37.261104756 398.0
37.277816025 344.0
37.294527294 409.0
37.311238563 378.0
37.327949832 402.0
37.344661101 387.0
37.361372370 374.0
37.378083639 373.0
37.394794908 340.0
37.411506177 361.0
37.428217446 347.0
37.444928715 367.0
37.461639984 371.0
37.478351253 365.0
37.495062522 385.0
37.511773791 384.0
37.528485060 361.0
37.545196329 416.0
37.561907598 408.0
37.578618867 408.0
37.595330136 366.0
37.612041405 398.0
37.628752674 373.0
37.645463943 421.0
37.662175212 402.0
37.678886481 403.0
37.695597750 407.0
37.712309019 405.0
37.729020288 421.0
37.745731556 456.0
37.762442825 433.0
37.779154094 443.0
37.795865363 394.0
37.812576632 408.0
37.829287901 416.0
37.845999170 371.0
37.862710439 396.0
37.879421708 412.0
37.896132977 433.0
37.912844246 402.0
37.929555515 424.0
37.946266784 441.0
37.962978053 397.0
37.979689322 419.0
37.996400591 436.0
38.013111860 390.0
38.029823129 422.0
38.046534398 423.0
38.063245667 414.0
38.079956936 407.0
38.096668205 407.0
38.113379474 419.0
38.130090743 443.0
38.146802012 426.0
38.163513281 457.0
38.180224550 468.0
38.196935819 501.0
38.213647088 535.0
38.230358357 550.0
38.247069626 575.0
38.263780895 569.0
38.280492164 556.0
38.297203433 646.0
38.313914702 693.0
38.330625971 758.0
38.347337240 723.0
38.364048509 769.0
38.380759778 687.0
38.397471047 761.0
38.414182316 763.0
38.430893585 744.0
38.447604854 726.0
38.464316123 607.0
38.481027391 562.0
38.497738660 565.0
38.514449929 553.0
38.531161198 502.0
38.547872467 448.0
38.564583736 436.0
38.581295005 446.0
38.598006274 464.0
38.614717543 452.0
38.631428812 455.0
38.648140081 438.0
38.664851350 462.0
38.681562619 451.0
38.698273888 451.0
38.714985157 484.0
38.731696426 497.0
38.748407695 522.0
38.765118964 485.0
38.781830233 544.0
38.798541502 538.0
38.815252771 586.0
38.831964040 542.0
38.848675309 611.0
38.865386578 577.0
38.882097847 610.0
38.898809116 598.0
38.915520385 599.0
38.932231654 597.0
38.948942923 639.0
38.965654192 636.0
38.982365461 617.0
38.999076730 673.0
39.015787999 633.0
39.032499268 691.0
39.049210537 677.0
39.065921806 595.0
39.082633075 658.0
39.099344344 615.0
39.116055613 591.0
39.132766882 615.0
39.149478151 558.0
39.166189420 553.0
39.182900689 508.0
39.199611958 477.0
39.216323226 496.0
39.233034495 440.0
39.249745764 432.0
39.266457033 452.0
39.283168302 426.0
39.299879571 414.0
39.316590840 409.0
39.333302109 425.0
39.350013378 417.0
39.366724647 374.0
39.383435916 414.0
39.400147185 388.0
39.416858454 409.0
39.433569723 392.0
39.450280992 410.0
39.466992261 377.0
39.483703530 376.0
39.500414799 443.0
39.517126068 417.0
39.533837337 412.0
39.550548606 398.0
39.567259875 411.0
39.583971144 476.0
39.600682413 411.0
39.617393682 431.0
39.634104951 436.0
39.650816220 443.0
39.667527489 442.0
39.684238758 512.0
39.700950027 506.0
39.717661296 479.0
39.734372565 513.0
39.751083834 488.0
39.767795103 521.0
39.784506372 480.0
39.801217641 500.0
39.817928910 504.0
39.834640179 482.0
39.851351448 549.0
39.868062717 488.0
39.884773986 496.0
39.901485255 446.0
39.918196524 473.0
39.934907793 440.0
39.951619061 437.0
39.968330330 407.0
39.985041599 432.0
40.001752868 436.0
40.018464137 386.0
40.035175406 415.0
40.051886675 365.0
40.068597944 377.0
40.085309213 431.0
40.102020482 412.0
40.118731751 399.0
40.135443020 402.0
40.152154289 406.0
40.168865558 399.0
40.185576827 412.0
40.202288096 406.0
40.218999365 429.0
40.235710634 417.0
40.252421903 407.0
40.269133172 452.0
40.285844441 432.0
40.302555710 424.0
40.319266979 437.0
40.335978248 435.0
40.352689517 479.0
40.369400786 474.0
40.386112055 452.0
40.402823324 465.0
40.419534593 452.0
40.436245862 466.0
40.452957131 515.0
40.469668400 454.0
40.486379669 531.0
40.503090938 496.0
40.519802207 489.0
40.536513476 510.0
40.553224745 510.0
40.569936014 501.0
40.586647283 526.0
40.603358552 477.0
40.620069821 493.0
40.636781090 441.0
40.653492359 468.0
40.670203628 457.0
40.686914896 479.0
40.703626165 467.0
40.720337434 481.0
40.737048703 503.0
40.753759972 509.0
40.770471241 495.0
40.787182510 489.0
40.803893779 436.0
40.820605048 470.0
40.837316317 503.0
40.854027586 491.0
40.870738855 505.0
40.887450124 492.0
40.904161393 553.0
40.920872662 549.0
40.937583931 562.0
40.954295200 620.0
40.971006469 635.0
40.987717738 682.0
41.004429007 729.0
41.021140276 754.0
41.037851545 842.0
41.054562814 948.0
41.071274083 970.0
41.087985352 1145.0
41.104696621 1305.0
41.121407890 1319.0
41.138119159 1494.0
41.154830428 1537.0
41.171541697 1668.0
41.188252966 1865.0
41.204964235 2019.0
41.221675504 2135.0
41.238386773 2096.0
41.255098042 2248.0
41.271809311 2214.0
41.288520580 2306.0
41.305231849 2287.0
41.321943118 2427.0
41.338654387 2408.0
41.355365656 2502.0
41.372076925 2528.0
41.388788194 2631.0
41.405499463 2785.0
41.422210731 2913.0
41.438922000 3091.0
41.455633269 3379.0
41.472344538 3599.0
41.489055807 3830.0
41.505767076 4278.0
41.522478345 4677.0
41.539189614 4671.0
41.555900883 5109.0
41.572612152 5292.0
41.589323421 5625.0
41.606034690 5664.0
41.622745959 5682.0
41.639457228 5754.0
41.656168497 5503.0
41.672879766 5106.0
41.689591035 4829.0
41.706302304 4380.0
41.723013573 3848.0
41.739724842 3319.0
41.756436111 2773.0
41.773147380 2512.0
41.789858649 2149.0
41.806569918 1754.0
41.823281187 1548.0
41.839992456 1257.0
41.856703725 1133.0
41.873414994 1062.0
41.890126263 891.0
41.906837532 850.0
41.923548801 795.0
41.940260070 713.0
41.956971339 676.0
41.973682608 621.0
41.990393877 578.0
42.007105146 570.0
42.023816415 536.0
42.040527684 558.0
42.057238953 502.0
42.073950222 534.0
42.090661491 495.0
42.107372760 538.0
42.124084029 487.0
42.140795298 517.0
42.157506566 491.0
42.174217835 501.0
42.190929104 472.0
42.207640373 483.0
42.224351642 510.0
42.241062911 533.0
42.257774180 497.0
42.274485449 511.0
42.291196718 491.0
42.307907987 533.0
42.324619256 481.0
42.341330525 514.0
42.358041794 541.0
42.374753063 491.0
42.391464332 480.0
42.408175601 490.0
42.424886870 490.0
42.441598139 447.0
42.458309408 522.0
42.475020677 450.0
42.491731946 492.0
42.508443215 447.0
42.525154484 434.0
42.541865753 470.0
42.558577022 489.0
42.575288291 453.0
42.591999560 490.0
42.608710829 455.0
42.625422098 486.0
42.642133367 454.0
42.658844636 475.0
42.675555905 452.0
42.692267174 462.0
42.708978443 463.0
42.725689712 454.0
42.742400981 481.0
42.759112250 506.0
42.775823519 465.0
42.792534788 524.0
42.809246057 484.0
42.825957326 475.0
42.842668595 497.0
42.859379864 493.0
42.876091133 443.0
42.892802401 479.0
42.909513670 472.0
42.926224939 489.0
42.942936208 499.0
42.959647477 530.0
42.976358746 542.0
42.993070015 487.0
43.009781284 532.0
43.026492553 500.0
43.043203822 559.0
43.059915091 536.0
43.076626360 542.0
43.093337629 578.0
43.110048898 553.0
43.126760167 561.0
43.143471436 562.0
43.160182705 576.0
43.176893974 562.0
43.193605243 515.0
43.210316512 564.0
43.227027781 564.0
43.243739050 529.0
43.260450319 507.0
43.277161588 495.0
43.293872857 511.0
43.310584126 531.0
43.327295395 501.0
43.344006664 545.0
43.360717933 557.0
43.377429202 582.0
43.394140471 597.0
43.410851740 544.0
43.427563009 583.0
43.444274278 537.0
43.460985547 598.0
43.477696816 549.0
43.494408085 552.0
43.511119354 575.0
43.527830623 604.0
43.544541892 633.0
43.561253161 704.0
43.577964430 622.0
43.594675699 711.0
43.611386968 749.0
43.628098236 760.0
43.644809505 812.0
43.661520774 783.0
43.678232043 915.0
43.694943312 853.0
43.711654581 936.0
43.728365850 965.0
43.745077119 984.0
43.761788388 1048.0
43.778499657 1022.0
43.795210926 1042.0
43.811922195 1037.0
43.828633464 998.0
43.845344733 985.0
43.862056002 1007.0
43.878767271 871.0
43.895478540 799.0
43.912189809 801.0
43.928901078 841.0
43.945612347 778.0
43.962323616 742.0
43.979034885 772.0
43.995746154 798.0
44.012457423 765.0
44.029168692 800.0
44.045879961 776.0
44.062591230 832.0
44.079302499 859.0
44.096013768 876.0
44.112725037 897.0
44.129436306 810.0
44.146147575 898.0
44.162858844 993.0
44.179570113 926.0
44.196281382 1028.0
44.212992651 994.0
44.229703920 1051.0
44.246415189 1077.0
44.263126458 1190.0
44.279837727 1147.0
44.296548996 1193.0
44.313260265 1283.0
44.329971534 1298.0
44.346682803 1289.0
44.363394071 1354.0
44.380105340 1456.0
44.396816609 1493.0
44.413527878 1636.0
44.430239147 1611.0
44.446950416 1594.0
44.463661685 1665.0
44.480372954 1737.0
44.497084223 1834.0
44.513795492 1885.0
44.530506761 1966.0
44.547218030 2067.0
44.563929299 2154.0
44.580640568 2223.0
44.597351837 2364.0
44.614063106 2341.0
44.630774375 2514.0
44.647485644 2629.0
44.664196913 2880.0
44.680908182 2978.0
44.697619451 3000.0
44.714330720 3169.0
44.731041989 3187.0
44.747753258 3225.0
44.764464527 3328.0
44.781175796 3471.0
44.797887065 3597.0
44.814598334 3635.0
44.831309603 3835.0
44.848020872 3642.0
44.864732141 3839.0
44.881443410 3794.0
44.898154679 3725.0
44.914865948 3758.0
44.931577217 3746.0
44.948288486 3689.0
44.964999755 3507.0
44.981711024 3514.0
44.998422293 3414.0
45.015133562 3349.0
45.031844831 3177.0
45.048556100 3121.0
45.065267369 2893.0
45.081978638 2805.0
45.098689906 2687.0
45.115401175 2627.0
45.132112444 2316.0
45.148823713 2331.0
45.165534982 2111.0
45.182246251 2014.0
45.198957520 1856.0
45.215668789 1792.0
45.232380058 1707.0
45.249091327 1542.0
45.265802596 1450.0
45.282513865 1351.0
45.299225134 1270.0
45.315936403 1252.0
45.332647672 1143.0
45.349358941 1074.0
45.366070210 997.0
45.382781479 949.0
45.399492748 952.0
45.416204017 911.0
45.432915286 837.0
45.449626555 821.0
45.466337824 845.0
45.483049093 782.0
45.499760362 769.0
45.516471631 772.0
45.533182900 706.0
45.549894169 734.0
45.566605438 663.0
45.583316707 683.0
45.600027976 696.0
45.616739245 695.0
45.633450514 657.0
45.650161783 708.0
45.666873052 648.0
45.683584321 655.0
45.700295590 633.0
45.717006859 659.0
45.733718128 652.0
45.750429397 670.0
45.767140666 616.0
45.783851935 641.0
45.800563204 602.0
45.817274473 569.0
45.833985741 574.0
45.850697010 569.0
45.867408279 570.0
45.884119548 547.0
45.900830817 572.0
45.917542086 556.0
45.934253355 544.0
45.950964624 549.0
45.967675893 542.0
45.984387162 499.0
46.001098431 468.0
46.017809700 527.0
46.034520969 522.0
46.051232238 515.0
46.067943507 534.0
46.084654776 489.0
46.101366045 508.0
46.118077314 507.0
46.134788583 523.0
46.151499852 514.0
46.168211121 471.0
46.184922390 506.0
46.201633659 540.0
46.218344928 504.0
46.235056197 538.0
46.251767466 558.0
46.268478735 487.0
46.285190004 516.0
46.301901273 542.0
46.318612542 535.0
46.335323811 512.0
46.352035080 509.0
46.368746349 536.0
46.385457618 503.0
46.402168887 525.0
46.418880156 488.0
46.435591425 478.0
46.452302694 521.0
46.469013963 514.0
46.485725232 489.0
46.502436501 485.0
46.519147770 484.0
46.535859039 473.0
46.552570308 451.0
46.569281576 459.0
46.585992845 418.0
46.602704114 467.0
46.619415383 438.0
46.636126652 432.0
46.652837921 461.0
46.669549190 468.0
46.686260459 396.0
46.702971728 435.0
46.719682997 476.0
46.736394266 461.0
46.753105535 415.0
46.769816804 473.0
46.786528073 458.0
46.803239342 430.0
46.819950611 429.0
46.836661880 435.0
46.853373149 450.0
46.870084418 470.0
46.886795687 435.0
46.903506956 428.0
46.920218225 441.0
46.936929494 426.0
46.953640763 487.0
46.970352032 451.0
46.987063301 461.0
47.003774570 418.0
47.020485839 480.0
47.037197108 490.0
47.053908377 473.0
47.070619646 465.0
47.087330915 515.0
47.104042184 466.0
47.120753453 510.0
47.137464722 483.0
47.154175991 541.0
47.170887260 518.0
47.187598529 536.0
47.204309798 522.0
47.221021067 535.0
47.237732336 548.0
47.254443605 511.0
47.271154874 525.0
47.287866143 498.0
47.304577411 517.0
47.321288680 518.0
47.337999949 480.0
47.354711218 508.0
47.371422487 459.0
47.388133756 463.0
47.404845025 503.0
47.421556294 460.0
47.438267563 573.0
47.454978832 558.0
47.471690101 523.0
47.488401370 583.0
47.505112639 539.0
47.521823908 529.0
47.538535177 548.0
47.555246446 569.0
47.571957715 502.0
47.588668984 522.0
47.605380253 485.0
47.622091522 480.0
47.638802791 491.0
47.655514060 488.0
47.672225329 428.0
47.688936598 428.0
47.705647867 458.0
47.722359136 461.0
47.739070405 421.0
47.755781674 396.0
47.772492943 413.0
47.789204212 449.0
47.805915481 472.0
47.822626750 424.0
47.839338019 424.0
47.856049288 451.0
47.872760557 451.0
47.889471826 475.0
47.906183095 488.0
47.922894364 515.0
47.939605633 444.0
47.956316902 463.0
47.973028171 450.0
47.989739440 453.0
48.006450709 453.0
48.023161978 451.0
48.039873246 493.0
48.056584515 429.0
48.073295784 465.0
48.090007053 460.0
48.106718322 505.0
48.123429591 427.0
48.140140860 452.0
48.156852129 425.0
48.173563398 437.0
48.190274667 458.0
48.206985936 440.0
48.223697205 457.0
48.240408474 442.0
48.257119743 458.0
48.273831012 434.0
48.290542281 393.0
48.307253550 470.0
48.323964819 450.0
48.340676088 447.0
48.357387357 403.0
48.374098626 405.0
48.390809895 487.0
48.407521164 491.0
48.424232433 435.0
48.440943702 474.0
48.457654971 470.0
48.474366240 518.0
48.491077509 452.0
48.507788778 505.0
48.524500047 470.0
48.541211316 472.0
48.557922585 475.0
48.574633854 528.0
48.591345123 551.0
48.608056392 542.0
48.624767661 589.0
48.641478930 566.0
48.658190199 604.0
48.674901468 673.0
48.691612737 656.0
48.708324006 740.0
48.725035275 751.0
48.741746544 774.0
48.758457813 823.0
48.775169081 846.0
48.791880350 870.0
48.808591619 906.0
48.825302888 959.0
48.842014157 960.0
48.858725426 968.0
48.875436695 935.0
48.892147964 909.0
48.908859233 891.0
48.925570502 836.0
48.942281771 893.0
48.958993040 843.0
48.975704309 820.0
48.992415578 845.0
49.009126847 827.0
49.025838116 888.0
49.042549385 866.0
49.059260654 907.0
49.075971923 941.0
49.092683192 1007.0
49.109394461 994.0
49.126105730 1069.0
49.142816999 1093.0
49.159528268 1084.0
49.176239537 1166.0
49.192950806 1174.0
49.209662075 1294.0
49.226373344 1268.0
49.243084613 1360.0
49.259795882 1373.0
49.276507151 1382.0
49.293218420 1302.0
49.309929689 1364.0
49.326640958 1263.0
49.343352227 1292.0
49.360063496 1184.0
49.376774765 1046.0
49.393486034 1030.0
49.410197303 898.0
49.426908572 834.0
49.443619841 747.0
49.460331110 723.0
49.477042379 708.0
49.493753648 622.0
49.510464916 537.0
49.527176185 542.0
49.543887454 521.0
49.560598723 493.0
49.577309992 488.0
49.594021261 533.0
49.610732530 458.0
49.627443799 495.0
49.644155068 456.0
49.660866337 461.0
49.677577606 460.0
49.694288875 468.0
49.711000144 479.0
49.727711413 460.0
49.744422682 444.0
49.761133951 442.0
49.777845220 455.0
49.794556489 418.0
49.811267758 446.0
49.827979027 435.0
49.844690296 433.0
49.861401565 387.0
49.878112834 439.0
49.894824103 425.0
49.911535372 448.0
49.928246641 443.0
49.944957910 422.0
49.961669179 407.0
49.978380448 407.0
49.995091717 421.0
50.011802986 402.0
50.028514255 438.0
50.045225524 427.0
50.061936793 429.0
50.078648062 456.0
50.095359331 436.0
50.112070600 477.0
50.128781869 425.0
50.145493138 433.0
50.162204407 406.0
50.178915676 431.0
50.195626945 447.0
50.212338214 463.0
50.229049483 431.0
50.245760751 443.0
50.262472020 455.0
50.279183289 448.0
50.295894558 436.0
50.312605827 398.0
50.329317096 483.0
50.346028365 497.0
50.362739634 480.0
50.379450903 463.0
50.396162172 443.0
50.412873441 544.0
50.429584710 501.0
50.446295979 504.0
50.463007248 486.0
50.479718517 486.0
50.496429786 487.0
50.513141055 484.0
50.529852324 453.0
50.546563593 440.0
50.563274862 432.0
50.579986131 438.0
50.596697400 427.0
50.613408669 467.0
50.630119938 472.0
50.646831207 444.0
50.663542476 429.0
50.680253745 409.0
50.696965014 423.0
50.713676283 490.0
50.730387552 500.0
50.747098821 457.0
50.763810090 457.0
50.780521359 482.0
50.797232628 511.0
50.813943897 478.0
50.830655166 528.0
50.847366435 466.0
50.864077704 536.0
50.880788973 504.0
50.897500242 520.0
50.914211511 548.0
50.930922780 550.0
50.947634049 542.0
50.964345318 626.0
50.981056586 662.0
50.997767855 687.0
51.014479124 690.0
51.031190393 705.0
51.047901662 709.0
51.064612931 781.0
51.081324200 794.0
51.098035469 842.0
51.114746738 903.0
51.131458007 832.0
51.148169276 871.0
51.164880545 856.0
51.181591814 868.0
51.198303083 881.0
51.215014352 818.0
51.231725621 803.0
51.248436890 881.0
51.265148159 863.0
51.281859428 831.0
51.298570697 881.0
51.315281966 855.0
51.331993235 873.0
51.348704504 900.0
51.365415773 905.0
51.382127042 935.0
51.398838311 955.0
51.415549580 1029.0
51.432260849 1125.0
51.448972118 1147.0
51.465683387 1194.0
51.482394656 1320.0
51.499105925 1387.0
51.515817194 1392.0
51.532528463 1493.0
51.549239732 1521.0
51.565951001 1662.0
51.582662270 1671.0
51.599373539 1823.0
51.616084808 1765.0
51.632796077 1901.0
51.649507346 1844.0
51.666218615 1877.0
51.682929884 1787.0
51.699641153 1742.0
51.716352421 1586.0
51.733063690 1445.0
51.749774959 1426.0
51.766486228 1237.0
51.783197497 1184.0
51.799908766 1083.0
51.816620035 977.0
51.833331304 855.0
51.850042573 828.0
51.866753842 767.0
51.883465111 734.0
51.900176380 733.0
51.916887649 603.0
51.933598918 628.0
51.950310187 563.0
51.967021456 576.0
51.983732725 551.0
52.000443994 554.0
52.017155263 513.0
52.033866532 460.0
52.050577801 479.0
52.067289070 498.0
52.084000339 418.0
52.100711608 413.0
52.117422877 396.0
52.134134146 479.0
52.150845415 425.0
52.167556684 440.0
52.184267953 466.0
52.200979222 414.0
52.217690491 404.0
52.234401760 451.0
52.251113029 435.0
52.267824298 416.0
52.284535567 431.0
52.301246836 431.0
52.317958105 479.0
52.334669374 441.0
52.351380643 428.0
52.368091912 404.0
52.384803181 439.0
52.401514450 409.0
52.418225719 407.0
52.434936988 422.0
52.451648256 402.0
52.468359525 439.0
52.485070794 380.0
52.501782063 438.0
52.518493332 437.0
52.535204601 432.0
52.551915870 431.0
52.568627139 423.0
52.585338408 433.0
52.602049677 417.0
52.618760946 404.0
52.635472215 450.0
52.652183484 480.0
52.668894753 467.0
52.685606022 454.0
52.702317291 474.0
52.719028560 477.0
52.735739829 452.0
52.752451098 472.0
52.769162367 439.0
52.785873636 442.0
52.802584905 491.0
52.819296174 466.0
52.836007443 428.0
52.852718712 489.0
52.869429981 486.0
52.886141250 467.0
52.902852519 447.0
52.919563788 471.0
52.936275057 480.0
52.952986326 447.0
52.969697595 447.0
52.986408864 448.0
53.003120133 459.0
53.019831402 479.0
53.036542671 473.0
53.053253940 507.0
53.069965209 458.0
53.086676478 456.0
53.103387747 471.0
53.120099016 501.0
53.136810285 441.0
53.153521554 468.0
53.170232823 468.0
53.186944091 479.0
53.203655360 409.0
53.220366629 463.0
53.237077898 480.0
53.253789167 475.0
53.270500436 454.0
53.287211705 449.0
53.303922974 475.0
53.320634243 450.0
53.337345512 528.0
53.354056781 495.0
53.370768050 522.0
53.387479319 514.0
53.404190588 482.0
53.420901857 471.0
53.437613126 506.0
53.454324395 510.0
53.471035664 457.0
53.487746933 463.0
53.504458202 505.0
53.521169471 530.0
53.537880740 467.0
53.554592009 473.0
53.571303278 490.0
53.588014547 528.0
53.604725816 482.0
53.621437085 516.0
53.638148354 487.0
53.654859623 497.0
53.671570892 509.0
53.688282161 534.0
53.704993430 500.0
53.721704699 456.0
53.738415968 488.0
53.755127237 444.0
53.771838506 410.0
53.788549775 449.0
53.805261044 440.0
53.821972313 430.0
53.838683582 384.0
53.855394851 400.0
53.872106120 408.0
53.888817389 410.0
53.905528658 396.0
53.922239926 410.0
53.938951195 385.0
53.955662464 415.0
53.972373733 373.0
53.989085002 364.0
54.005796271 324.0
54.022507540 372.0
54.039218809 378.0
54.055930078 359.0
54.072641347 344.0
54.089352616 357.0
54.106063885 339.0
54.122775154 364.0
54.139486423 359.0
54.156197692 347.0
54.172908961 411.0
54.189620230 352.0
54.206331499 327.0
54.223042768 391.0
54.239754037 390.0
54.256465306 378.0
54.273176575 361.0
54.289887844 380.0
54.306599113 352.0
54.323310382 375.0
54.340021651 388.0
54.356732920 406.0
54.373444189 400.0
54.390155458 454.0
54.406866727 367.0
54.423577996 406.0
54.440289265 394.0
54.457000534 402.0
54.473711803 385.0
54.490423072 396.0
54.507134341 412.0
54.523845610 390.0
54.540556879 368.0
54.557268148 428.0
54.573979417 374.0
54.590690686 379.0
54.607401955 383.0
54.624113224 343.0
54.640824493 327.0
54.657535761 328.0
54.674247030 343.0
54.690958299 357.0
54.707669568 393.0
54.724380837 387.0
54.741092106 392.0
54.757803375 374.0
54.774514644 390.0
54.791225913 400.0
54.807937182 406.0
54.824648451 405.0
54.841359720 411.0
54.858070989 424.0
54.874782258 418.0
54.891493527 416.0
54.908204796 463.0
54.924916065 411.0
54.941627334 474.0
54.958338603 437.0
54.975049872 443.0
54.991761141 508.0
55.008472410 415.0
55.025183679 462.0
55.041894948 441.0
55.058606217 449.0
55.075317486 462.0
55.092028755 453.0
55.108740024 497.0
55.125451293 478.0
55.142162562 453.0
55.158873831 465.0
55.175585100 454.0
55.192296369 491.0
55.209007638 462.0
55.225718907 521.0
55.242430176 569.0
55.259141445 512.0
55.275852714 592.0
55.292563983 530.0
55.309275252 624.0
55.325986521 627.0
55.342697790 632.0
55.359409059 670.0
55.376120328 632.0
55.392831596 649.0
55.409542865 658.0
55.426254134 708.0
55.442965403 678.0
55.459676672 788.0
55.476387941 787.0
55.493099210 832.0
55.509810479 787.0
55.526521748 867.0
55.543233017 857.0
55.559944286 895.0
55.576655555 910.0
55.593366824 880.0
55.610078093 918.0
55.626789362 948.0
55.643500631 963.0
55.660211900 943.0
55.676923169 959.0
55.693634438 987.0
55.710345707 1030.0
55.727056976 965.0
55.743768245 1102.0
55.760479514 1026.0
55.777190783 1056.0
55.793902052 1076.0
55.810613321 1084.0
55.827324590 1141.0
55.844035859 1100.0
55.860747128 1032.0
55.877458397 1044.0
55.894169666 1091.0
55.910880935 1079.0
55.927592204 1052.0
55.944303473 1040.0
55.961014742 1019.0
55.977726011 994.0
55.994437280 1009.0
56.011148549 945.0
56.027859818 957.0
56.044571087 896.0
56.061282356 878.0
56.077993625 850.0
56.094704894 793.0
56.111416163 747.0
56.128127431 748.0
56.144838700 682.0
56.161549969 694.0
56.178261238 673.0
56.194972507 613.0
56.211683776 606.0
56.228395045 573.0
56.245106314 581.0
56.261817583 547.0
56.278528852 576.0
56.295240121 536.0
56.311951390 463.0
56.328662659 463.0
56.345373928 446.0
56.362085197 486.0
56.378796466 449.0
56.395507735 401.0
56.412219004 438.0
56.428930273 417.0
56.445641542 435.0
56.462352811 410.0
56.479064080 404.0
56.495775349 396.0
56.512486618 324.0
56.529197887 363.0
56.545909156 380.0
56.562620425 342.0
56.579331694 401.0
56.596042963 369.0
56.612754232 366.0
56.629465501 347.0
56.646176770 349.0
56.662888039 357.0
56.679599308 360.0
56.696310577 318.0
56.713021846 324.0
56.729733115 338.0
56.746444384 340.0
56.763155653 317.0
56.779866922 358.0
56.796578191 320.0
56.813289460 329.0
56.830000729 289.0
56.846711998 284.0
56.863423266 355.0
56.880134535 310.0
56.896845804 323.0
56.913557073 312.0
56.930268342 342.0
56.946979611 304.0
56.963690880 330.0
56.980402149 309.0
56.997113418 310.0
57.013824687 326.0
57.030535956 312.0
57.047247225 312.0
57.063958494 314.0
57.080669763 322.0
57.097381032 307.0
57.114092301 328.0
57.130803570 306.0
57.147514839 312.0
57.164226108 350.0
57.180937377 297.0
57.197648646 314.0
57.214359915 316.0
57.231071184 300.0
57.247782453 299.0
57.264493722 322.0
57.281204991 294.0
57.297916260 293.0
57.314627529 280.0
57.331338798 299.0
57.348050067 304.0
57.364761336 252.0
57.381472605 281.0
57.398183874 285.0
57.414895143 290.0
57.431606412 311.0
57.448317681 273.0
57.465028950 323.0
57.481740219 288.0
57.498451488 293.0
57.515162757 309.0
57.531874026 298.0
57.548585295 289.0
57.565296564 300.0
57.582007833 298.0
57.598719101 302.0
57.615430370 333.0
57.632141639 291.0
57.648852908 267.0
57.665564177 297.0
57.682275446 282.0
57.698986715 295.0
57.715697984 307.0
57.732409253 318.0
57.749120522 289.0
57.765831791 266.0
57.782543060 278.0
57.799254329 274.0
57.815965598 285.0
57.832676867 305.0
57.849388136 273.0
57.866099405 277.0
57.882810674 275.0
57.899521943 280.0
57.916233212 276.0
57.932944481 284.0
57.949655750 303.0
57.966367019 269.0
57.983078288 300.0
57.999789557 294.0
58.016500826 262.0
58.033212095 277.0
58.049923364 291.0
58.066634633 293.0
58.083345902 301.0
58.100057171 291.0
58.116768440 254.0
58.133479709 285.0
58.150190978 318.0
58.166902247 315.0
58.183613516 285.0
58.200324785 288.0
58.217036054 294.0
58.233747323 289.0
58.250458592 309.0
58.267169861 309.0
58.283881130 262.0
58.300592399 297.0
58.317303668 272.0
58.334014936 307.0
58.350726205 309.0
58.367437474 294.0
58.384148743 299.0
58.400860012 265.0
58.417571281 263.0
58.434282550 324.0
58.450993819 275.0
58.467705088 309.0
58.484416357 322.0
58.501127626 265.0
58.517838895 277.0
58.534550164 291.0
58.551261433 276.0
58.567972702 255.0
58.584683971 308.0
58.601395240 270.0
58.618106509 277.0
58.634817778 285.0
58.651529047 282.0
58.668240316 295.0
58.684951585 257.0
58.701662854 289.0
58.718374123 259.0
58.735085392 260.0
58.751796661 301.0
58.768507930 294.0
58.785219199 320.0
58.801930468 308.0
58.818641737 299.0
58.835353006 294.0
58.852064275 291.0
58.868775544 273.0
58.885486813 279.0
58.902198082 307.0
58.918909351 315.0
58.935620620 277.0
58.952331889 303.0
58.969043158 277.0
58.985754427 306.0
59.002465696 292.0
59.019176965 297.0
59.035888234 303.0
59.052599503 280.0
59.069310771 304.0
59.086022040 304.0
59.102733309 332.0
59.119444578 292.0
59.136155847 343.0
59.152867116 327.0
59.169578385 315.0
59.186289654 329.0
59.203000923 324.0
59.219712192 264.0
59.236423461 283.0
59.253134730 334.0
59.269845999 307.0
59.286557268 323.0
59.303268537 304.0
59.319979806 304.0
59.336691075 310.0
59.353402344 285.0
59.370113613 303.0
59.386824882 311.0
59.403536151 305.0
59.420247420 267.0
59.436958689 299.0
59.453669958 288.0
59.470381227 273.0
59.487092496 268.0
59.503803765 287.0
59.520515034 294.0
59.537226303 291.0
59.553937572 269.0
59.570648841 344.0
59.587360110 327.0
59.604071379 319.0
59.620782648 315.0
59.637493917 343.0
59.654205186 322.0
59.670916455 340.0
59.687627724 348.0
59.704338993 361.0
59.721050262 341.0
59.737761531 329.0
59.754472800 344.0
59.771184069 358.0
59.787895338 353.0
59.804606606 372.0
59.821317875 364.0
59.838029144 398.0
59.854740413 364.0
59.871451682 377.0
59.888162951 423.0
59.904874220 416.0
59.921585489 407.0
59.938296758 402.0
59.955008027 381.0
59.971719296 404.0
59.988430565 421.0
60.005141834 372.0
60.021853103 392.0
60.038564372 406.0
60.055275641 410.0
60.071986910 453.0
60.088698179 415.0
60.105409448 440.0
60.122120717 417.0
60.138831986 451.0
60.155543255 461.0
60.172254524 413.0
60.188965793 497.0
60.205677062 460.0
60.222388331 472.0
60.239099600 470.0
60.255810869 588.0
60.272522138 527.0
60.289233407 560.0
60.305944676 610.0
60.322655945 606.0
60.339367214 629.0
60.356078483 616.0
60.372789752 639.0
60.389501021 652.0
60.406212290 725.0
60.422923559 706.0
60.439634828 670.0
60.456346097 700.0
60.473057366 706.0
60.489768635 682.0
60.506479904 621.0
60.523191173 638.0
60.539902441 571.0
60.556613710 544.0
60.573324979 479.0
60.590036248 450.0
60.606747517 436.0
60.623458786 442.0
60.640170055 405.0
60.656881324 399.0
60.673592593 355.0
60.690303862 372.0
60.707015131 340.0
60.723726400 329.0
60.740437669 367.0
60.757148938 306.0
60.773860207 347.0
60.790571476 285.0
60.807282745 307.0
60.823994014 318.0
60.840705283 289.0
60.857416552 313.0
60.874127821 293.0
60.890839090 292.0
60.907550359 302.0
60.924261628 313.0
60.940972897 328.0
60.957684166 267.0
60.974395435 294.0
60.991106704 273.0
61.007817973 289.0
61.024529242 275.0
61.041240511 273.0
61.057951780 281.0
61.074663049 286.0
61.091374318 287.0
61.108085587 286.0
61.124796856 330.0
61.141508125 326.0
61.158219394 330.0
61.174930663 263.0
61.191641932 298.0
61.208353201 269.0
61.225064470 308.0
61.241775739 326.0
61.258487008 256.0
61.275198276 300.0
61.291909545 293.0
61.308620814 307.0
61.325332083 308.0
61.342043352 305.0
61.358754621 311.0
61.375465890 284.0
61.392177159 287.0
61.408888428 313.0
61.425599697 289.0
61.442310966 264.0
61.459022235 261.0
61.475733504 260.0
61.492444773 278.0
61.509156042 261.0
61.525867311 272.0
61.542578580 266.0
61.559289849 272.0
61.576001118 266.0
61.592712387 244.0
61.609423656 298.0
61.626134925 274.0
61.642846194 297.0
61.659557463 307.0
61.676268732 250.0
61.692980001 266.0
61.709691270 275.0
61.726402539 255.0
61.743113808 261.0
61.759825077 281.0
61.776536346 272.0
61.793247615 281.0
61.809958884 291.0
61.826670153 287.0
61.843381422 288.0
61.860092691 286.0
61.876803960 298.0
61.893515229 283.0
61.910226498 306.0
61.926937767 322.0
61.943649036 274.0
61.960360305 318.0
61.977071574 286.0
61.993782843 256.0
62.010494111 293.0
62.027205380 310.0
62.043916649 289.0
62.060627918 279.0
62.077339187 280.0
62.094050456 273.0
62.110761725 291.0
62.127472994 301.0
62.144184263 259.0
62.160895532 299.0
62.177606801 310.0
62.194318070 309.0
62.211029339 285.0
62.227740608 300.0
62.244451877 290.0
62.261163146 295.0
62.277874415 278.0
62.294585684 257.0
62.311296953 265.0
62.328008222 293.0
62.344719491 255.0
62.361430760 277.0
62.378142029 297.0
62.394853298 282.0
62.411564567 289.0
62.428275836 255.0
62.444987105 295.0
62.461698374 309.0
62.478409643 272.0
62.495120912 279.0
62.511832181 261.0
62.528543450 279.0
62.545254719 304.0
62.561965988 278.0
62.578677257 245.0
62.595388526 277.0
62.612099795 269.0
62.628811064 291.0
62.645522333 289.0
62.662233602 297.0
62.678944871 252.0
62.695656140 300.0
62.712367409 263.0
62.729078678 287.0
62.745789946 281.0
62.762501215 273.0
62.779212484 262.0
62.795923753 291.0
62.812635022 267.0
62.829346291 289.0
62.846057560 279.0
62.862768829 274.0
62.879480098 284.0
62.896191367 270.0
62.912902636 289.0
62.929613905 279.0
62.946325174 277.0
62.963036443 297.0
62.979747712 248.0
62.996458981 318.0
63.013170250 301.0
63.029881519 300.0
63.046592788 273.0
63.063304057 311.0
63.080015326 306.0
63.096726595 302.0
63.113437864 295.0
63.130149133 297.0
63.146860402 307.0
63.163571671 287.0
63.180282940 317.0
63.196994209 308.0
63.213705478 301.0
63.230416747 287.0
63.247128016 285.0
63.263839285 295.0
63.280550554 303.0
63.297261823 315.0
63.313973092 304.0
63.330684361 306.0
63.347395630 281.0
63.364106899 338.0
63.380818168 295.0
63.397529437 301.0
63.414240706 329.0
63.430951975 300.0
63.447663244 317.0
63.464374513 274.0
63.481085781 311.0
63.497797050 293.0
63.514508319 290.0
63.531219588 298.0
63.547930857 290.0
63.564642126 308.0
63.581353395 279.0
63.598064664 305.0
63.614775933 273.0
63.631487202 283.0
63.648198471 286.0
63.664909740 324.0
63.681621009 289.0
63.698332278 288.0
63.715043547 263.0
63.731754816 256.0
63.748466085 293.0
63.765177354 283.0
63.781888623 313.0
63.798599892 278.0
63.815311161 310.0
63.832022430 266.0
63.848733699 299.0
63.865444968 285.0
63.882156237 276.0
63.898867506 291.0
63.915578775 305.0
63.932290044 295.0
63.949001313 274.0
63.965712582 278.0
63.982423851 279.0
63.999135120 286.0
64.015846389 325.0
64.032557658 294.0
64.049268927 308.0
64.065980196 285.0
64.082691465 274.0
64.099402734 295.0
64.116114003 281.0
64.132825272 314.0
64.149536541 294.0
64.166247810 335.0
64.182959079 291.0
64.199670348 283.0
64.216381616 324.0
64.233092885 266.0
64.249804154 282.0
64.266515423 289.0
64.283226692 274.0
64.299937961 291.0
64.316649230 299.0
64.333360499 300.0
64.350071768 270.0
64.366783037 352.0
64.383494306 318.0
64.400205575 308.0
64.416916844 300.0
64.433628113 318.0
64.450339382 300.0
64.467050651 326.0
64.483761920 288.0
64.500473189 331.0
64.517184458 288.0
64.533895727 315.0
64.550606996 361.0
64.567318265 317.0
64.584029534 318.0
64.600740803 335.0
64.617452072 344.0
64.634163341 345.0
64.650874610 353.0
64.667585879 365.0
64.684297148 303.0
64.701008417 363.0
64.717719686 328.0
64.734430955 317.0
64.751142224 354.0
64.767853493 348.0
64.784564762 361.0
64.801276031 330.0
64.817987300 355.0
64.834698569 325.0
64.851409838 349.0
64.868121107 381.0
64.884832376 375.0
64.901543645 339.0
64.918254914 365.0
64.934966183 367.0
64.951677451 378.0
64.968388720 426.0
64.985099989 340.0
65.001811258 413.0
65.018522527 386.0
65.035233796 386.0
65.051945065 404.0
65.068656334 432.0
65.085367603 394.0
65.102078872 423.0
65.118790141 437.0
65.135501410 452.0
65.152212679 455.0
65.168923948 487.0
65.185635217 474.0
65.202346486 478.0
65.219057755 498.0
65.235769024 464.0
65.252480293 510.0
65.269191562 542.0
65.285902831 472.0
65.302614100 554.0
65.319325369 535.0
65.336036638 538.0
65.352747907 546.0
65.369459176 540.0
65.386170445 541.0
65.402881714 566.0
65.419592983 550.0
65.436304252 523.0
65.453015521 546.0
65.469726790 521.0
65.486438059 553.0
65.503149328 571.0
65.519860597 524.0
65.536571866 571.0
65.553283135 581.0
65.569994404 573.0
65.586705673 526.0
65.603416942 572.0
65.620128211 596.0
65.636839480 545.0
65.653550749 537.0
65.670262018 621.0
65.686973286 560.0
65.703684555 507.0
65.720395824 532.0
65.737107093 525.0
65.753818362 527.0
65.770529631 470.0
65.787240900 482.0
65.803952169 560.0
65.820663438 507.0
65.837374707 547.0
65.854085976 513.0
65.870797245 488.0
65.887508514 508.0
65.904219783 513.0
65.920931052 496.0
65.937642321 495.0
65.954353590 451.0
65.971064859 479.0
65.987776128 434.0
66.004487397 481.0
66.021198666 451.0
66.037909935 440.0
66.054621204 466.0
66.071332473 454.0
66.088043742 429.0
66.104755011 456.0
66.121466280 430.0
66.138177549 460.0
66.154888818 425.0
66.171600087 393.0
66.188311356 440.0
66.205022625 415.0
66.221733894 427.0
66.238445163 446.0
66.255156432 451.0
66.271867701 414.0
66.288578970 381.0
66.305290239 423.0
66.322001508 421.0
66.338712777 412.0
66.355424046 404.0
66.372135315 428.0
66.388846584 406.0
66.405557853 411.0
66.422269121 456.0
66.438980390 422.0
66.455691659 480.0
66.472402928 458.0
66.489114197 452.0
66.505825466 457.0
66.522536735 454.0
66.539248004 471.0
66.555959273 481.0
66.572670542 480.0
66.589381811 462.0
66.606093080 481.0
66.622804349 430.0
66.639515618 429.0
66.656226887 436.0
66.672938156 411.0
66.689649425 409.0
66.706360694 386.0
66.723071963 415.0
66.739783232 390.0
66.756494501 368.0
66.773205770 374.0
66.789917039 378.0
66.806628308 379.0
66.823339577 350.0
66.840050846 326.0
66.856762115 340.0
66.873473384 350.0
66.890184653 332.0
66.906895922 332.0
66.923607191 300.0
66.940318460 344.0
66.957029729 300.0
66.973740998 301.0
66.990452267 287.0
67.007163536 312.0
67.023874805 338.0
67.040586074 298.0
67.057297343 315.0
67.074008612 284.0
67.090719881 298.0
67.107431150 277.0
67.124142419 324.0
67.140853688 323.0
67.157564956 330.0
67.174276225 339.0
67.190987494 312.0
67.207698763 323.0
67.224410032 304.0
67.241121301 303.0
67.257832570 301.0
67.274543839 322.0
67.291255108 308.0
67.307966377 325.0
67.324677646 316.0
67.341388915 322.0
67.358100184 344.0
67.374811453 313.0
67.391522722 320.0
67.408233991 335.0
67.424945260 313.0
67.441656529 328.0
67.458367798 311.0
67.475079067 325.0
67.491790336 356.0
67.508501605 329.0
67.525212874 364.0
67.541924143 367.0
67.558635412 355.0
67.575346681 401.0
67.592057950 360.0
67.608769219 368.0
67.625480488 373.0
67.642191757 393.0
67.658903026 387.0
67.675614295 443.0
67.692325564 448.0
67.709036833 485.0
67.725748102 482.0
67.742459371 490.0
67.759170640 507.0
67.775881909 496.0
67.792593178 507.0
67.809304447 567.0
67.826015716 534.0
67.842726985 570.0
67.859438254 517.0
67.876149523 517.0
67.892860791 550.0
67.909572060 478.0
67.926283329 514.0
67.942994598 542.0
67.959705867 520.0
67.976417136 523.0
67.993128405 492.0
68.009839674 520.0
68.026550943 491.0
68.043262212 487.0
68.059973481 475.0
68.076684750 483.0
68.093396019 533.0
68.110107288 468.0
68.126818557 492.0
68.143529826 490.0
68.160241095 512.0
68.176952364 571.0
68.193663633 541.0
68.210374902 602.0
68.227086171 624.0
68.243797440 622.0
68.260508709 648.0
68.277219978 730.0
68.293931247 789.0
68.310642516 738.0
68.327353785 822.0
68.344065054 844.0
68.360776323 856.0
68.377487592 918.0
68.394198861 1026.0
68.410910130 1117.0
68.427621399 1149.0
68.444332668 1201.0
68.461043937 1219.0
68.477755206 1244.0
68.494466475 1239.0
68.511177744 1237.0
68.527889013 1339.0
68.544600282 1257.0
68.561311551 1208.0
68.578022820 1204.0
68.594734089 1173.0
68.611445358 1098.0
68.628156626 963.0
68.644867895 893.0
68.661579164 881.0
68.678290433 781.0
68.695001702 709.0
68.711712971 594.0
68.728424240 619.0
68.745135509 567.0
68.761846778 525.0
68.778558047 524.0
68.795269316 456.0
68.811980585 443.0
68.828691854 466.0
68.845403123 386.0
68.862114392 454.0
68.878825661 426.0
68.895536930 425.0
68.912248199 374.0
68.928959468 375.0
68.945670737 378.0
68.962382006 356.0
68.979093275 361.0
68.995804544 334.0
69.012515813 340.0
69.029227082 331.0
69.045938351 329.0
69.062649620 327.0
69.079360889 299.0
69.096072158 322.0
69.112783427 323.0
69.129494696 316.0
69.146205965 331.0
69.162917234 323.0
69.179628503 349.0
69.196339772 299.0
69.213051041 279.0
69.229762310 302.0
69.246473579 324.0
69.263184848 351.0
69.279896117 322.0
69.296607386 343.0
69.313318655 322.0
69.330029924 336.0
69.346741193 307.0
69.363452461 311.0
69.380163730 315.0
69.396874999 337.0
69.413586268 312.0
69.430297537 323.0
69.447008806 323.0
69.463720075 317.0
69.480431344 307.0
69.497142613 314.0
69.513853882 330.0
69.530565151 325.0
69.547276420 323.0
69.563987689 328.0
69.580698958 337.0
69.597410227 323.0
69.614121496 347.0
69.630832765 316.0
69.647544034 322.0
69.664255303 308.0
69.680966572 294.0
69.697677841 302.0
69.714389110 322.0
69.731100379 292.0
69.747811648 304.0
69.764522917 298.0
69.781234186 297.0
69.797945455 295.0
69.814656724 325.0
69.831367993 279.0
69.848079262 307.0
69.864790531 335.0
69.881501800 288.0
69.898213069 274.0
69.914924338 312.0
69.931635607 304.0
69.948346876 287.0
69.965058145 295.0
69.981769414 292.0
69.998480683 303.0
70.015191952 304.0
70.031903221 294.0
70.048614490 317.0
70.065325759 316.0
70.082037028 329.0
70.098748296 306.0
70.115459565 287.0
70.132170834 344.0
70.148882103 330.0
70.165593372 294.0
70.182304641 333.0
70.199015910 313.0
70.215727179 300.0
70.232438448 300.0
70.249149717 309.0
70.265860986 326.0
70.282572255 306.0
70.299283524 274.0
70.315994793 334.0
70.332706062 312.0
70.349417331 300.0
70.366128600 328.0
70.382839869 305.0
70.399551138 304.0
70.416262407 311.0
70.432973676 312.0
70.449684945 295.0
70.466396214 320.0
70.483107483 322.0
70.499818752 317.0
70.516530021 323.0
70.533241290 344.0
70.549952559 297.0
70.566663828 314.0
70.583375097 295.0
70.600086366 274.0
70.616797635 314.0
70.633508904 307.0
70.650220173 298.0
70.666931442 288.0
70.683642711 303.0
70.700353980 314.0
70.717065249 290.0
70.733776518 290.0
70.750487787 303.0
70.767199056 311.0
70.783910325 316.0
70.800621594 322.0
70.817332863 297.0
70.834044131 303.0
70.850755400 311.0
70.867466669 303.0
70.884177938 337.0
70.900889207 318.0
70.917600476 335.0
70.934311745 292.0
70.951023014 305.0
70.967734283 310.0
70.984445552 297.0
71.001156821 348.0
71.017868090 336.0
71.034579359 295.0
71.051290628 311.0
71.068001897 332.0
71.084713166 322.0
71.101424435 305.0
71.118135704 318.0
71.134846973 334.0
71.151558242 308.0
71.168269511 295.0
71.184980780 335.0
71.201692049 311.0
71.218403318 288.0
71.235114587 320.0
71.251825856 320.0
71.268537125 322.0
71.285248394 300.0
71.301959663 333.0
71.318670932 291.0
71.335382201 300.0
71.352093470 325.0
71.368804739 322.0
71.385516008 341.0
71.402227277 324.0
71.418938546 319.0
71.435649815 342.0
71.452361084 297.0
71.469072353 354.0
71.485783622 336.0
71.502494891 330.0
71.519206160 319.0
71.535917429 365.0
71.552628698 364.0
71.569339966 345.0
71.586051235 401.0
71.602762504 371.0
71.619473773 365.0
71.636185042 351.0
71.652896311 369.0
71.669607580 352.0
71.686318849 364.0
71.703030118 382.0
71.719741387 333.0
71.736452656 344.0
71.753163925 354.0
71.769875194 315.0
71.786586463 304.0
71.803297732 362.0
71.820009001 313.0
71.836720270 310.0
71.853431539 337.0
71.870142808 312.0
71.886854077 311.0
71.903565346 292.0
71.920276615 311.0
71.936987884 330.0
71.953699153 333.0
71.970410422 338.0
71.987121691 335.0
72.003832960 334.0
72.020544229 334.0
72.037255498 343.0
72.053966767 350.0
72.070678036 347.0
72.087389305 348.0
72.104100574 339.0
72.120811843 306.0
72.137523112 335.0
72.154234381 348.0
72.170945650 367.0
72.187656919 325.0
72.204368188 353.0
72.221079457 356.0
72.237790726 378.0
72.254501995 311.0
72.271213264 324.0
72.287924533 338.0
72.304635801 357.0
72.321347070 337.0
72.338058339 334.0
72.354769608 372.0
72.371480877 360.0
72.388192146 319.0
72.404903415 357.0
72.421614684 363.0
72.438325953 311.0
72.455037222 332.0
72.471748491 366.0
72.488459760 338.0
72.505171029 363.0
72.521882298 317.0
72.538593567 354.0
72.555304836 345.0
72.572016105 338.0
72.588727374 337.0
72.605438643 325.0
72.622149912 343.0
72.638861181 334.0
72.655572450 339.0
72.672283719 339.0
72.688994988 364.0
72.705706257 314.0
72.722417526 367.0
72.739128795 324.0
72.755840064 338.0
72.772551333 312.0
72.789262602 318.0
72.805973871 357.0
72.822685140 327.0
72.839396409 355.0
72.856107678 364.0
72.872818947 343.0
72.889530216 343.0
72.906241485 355.0
72.922952754 361.0
72.939664023 359.0
72.956375292 335.0
72.973086561 369.0
72.989797830 366.0
73.006509099 330.0
73.023220368 340.0
73.039931636 314.0
73.056642905 355.0
73.073354174 347.0
73.090065443 347.0
73.106776712 359.0
73.123487981 374.0
73.140199250 371.0
73.156910519 363.0
73.173621788 373.0
73.190333057 330.0
73.207044326 363.0
73.223755595 428.0
73.240466864 359.0
73.257178133 382.0
73.273889402 351.0
73.290600671 350.0
73.307311940 375.0
73.324023209 406.0
73.340734478 373.0
73.357445747 373.0
73.374157016 431.0
73.390868285 410.0
73.407579554 425.0
73.424290823 411.0
73.441002092 387.0
73.457713361 406.0
73.474424630 446.0
73.491135899 406.0
73.507847168 408.0
73.524558437 396.0
73.541269706 425.0
73.557980975 438.0
73.574692244 428.0
73.591403513 405.0
73.608114782 426.0
73.624826051 436.0
73.641537320 464.0
73.658248589 482.0
73.674959858 460.0
73.691671127 467.0
73.708382396 481.0
73.725093665 453.0
73.741804934 505.0
73.758516203 507.0
73.775227471 517.0
73.791938740 511.0
73.808650009 518.0
73.825361278 513.0
73.842072547 597.0
73.858783816 537.0
73.875495085 572.0
73.892206354 529.0
73.908917623 583.0
73.925628892 594.0
73.942340161 616.0
73.959051430 661.0
73.975762699 695.0
73.992473968 676.0
74.009185237 683.0
74.025896506 677.0
74.042607775 749.0
74.059319044 727.0
74.076030313 742.0
74.092741582 717.0
74.109452851 816.0
74.126164120 768.0
74.142875389 737.0
74.159586658 768.0
74.176297927 803.0
74.193009196 809.0
74.209720465 810.0
74.226431734 811.0
74.243143003 790.0
74.259854272 908.0
74.276565541 826.0
74.293276810 841.0
74.309988079 839.0
74.326699348 830.0
74.343410617 822.0
74.360121886 794.0
74.376833155 839.0
74.393544424 876.0
74.410255693 808.0
74.426966962 833.0
74.443678231 828.0
74.460389500 823.0
74.477100769 887.0
74.493812038 856.0
74.510523306 821.0
74.527234575 863.0
74.543945844 869.0
74.560657113 821.0
74.577368382 787.0
74.594079651 797.0
74.610790920 834.0
74.627502189 821.0
74.644213458 804.0
74.660924727 831.0
74.677635996 798.0
74.694347265 801.0
74.711058534 722.0
74.727769803 714.0
74.744481072 685.0
74.761192341 728.0
74.777903610 703.0
74.794614879 699.0
74.811326148 686.0
74.828037417 709.0
74.844748686 696.0
74.861459955 658.0
74.878171224 651.0
74.894882493 646.0
74.911593762 605.0
74.928305031 570.0
74.945016300 597.0
74.961727569 570.0
74.978438838 547.0
74.995150107 524.0
75.011861376 536.0
75.028572645 528.0
75.045283914 530.0
75.061995183 504.0
75.078706452 468.0
75.095417721 478.0
75.112128990 516.0
75.128840259 520.0
75.145551528 488.0
75.162262797 515.0
75.178974066 497.0
75.195685335 452.0
75.212396604 458.0
75.229107873 501.0
75.245819141 490.0
75.262530410 507.0
75.279241679 471.0
75.295952948 476.0
75.312664217 513.0
75.329375486 525.0
75.346086755 484.0
75.362798024 530.0
75.379509293 499.0
75.396220562 490.0
75.412931831 517.0
75.429643100 429.0
75.446354369 526.0
75.463065638 466.0
75.479776907 470.0
75.496488176 456.0
75.513199445 513.0
75.529910714 468.0
75.546621983 457.0
75.563333252 471.0
75.580044521 423.0
75.596755790 463.0
75.613467059 402.0
75.630178328 418.0
75.646889597 467.0
75.663600866 471.0
75.680312135 451.0
75.697023404 424.0
75.713734673 441.0
75.730445942 488.0
75.747157211 462.0
75.763868480 424.0
75.780579749 450.0
75.797291018 467.0
75.814002287 500.0
75.830713556 442.0
75.847424825 503.0
75.864136094 552.0
75.880847363 545.0
75.897558632 565.0
75.914269901 541.0
75.930981170 595.0
75.947692439 613.0
75.964403708 588.0
75.981114976 657.0
75.997826245 659.0
76.014537514 675.0
76.031248783 730.0
76.047960052 740.0
76.064671321 758.0
76.081382590 763.0
76.098093859 831.0
76.114805128 887.0
76.131516397 893.0
76.148227666 903.0
76.164938935 913.0
76.181650204 926.0
76.198361473 864.0
76.215072742 857.0
76.231784011 884.0
76.248495280 852.0
76.265206549 769.0
76.281917818 753.0
76.298629087 704.0
76.315340356 659.0
76.332051625 601.0
76.348762894 571.0
76.365474163 558.0
76.382185432 578.0
76.398896701 575.0
76.415607970 484.0
76.432319239 450.0
76.449030508 462.0
76.465741777 446.0
76.482453046 460.0
76.499164315 434.0
76.515875584 405.0
76.532586853 391.0
76.549298122 379.0
76.566009391 399.0
76.582720660 389.0
76.599431929 410.0
76.616143198 380.0
76.632854467 384.0
76.649565736 379.0
76.666277005 353.0
76.682988274 361.0
76.699699543 361.0
76.716410811 362.0
76.733122080 355.0
76.749833349 352.0
76.766544618 345.0
76.783255887 331.0
76.799967156 312.0
76.816678425 332.0
76.833389694 348.0
76.850100963 344.0
76.866812232 298.0
76.883523501 311.0
76.900234770 313.0
76.916946039 345.0
76.933657308 334.0
76.950368577 305.0
76.967079846 330.0
76.983791115 338.0
77.000502384 341.0
77.017213653 350.0
77.033924922 328.0
77.050636191 360.0
77.067347460 369.0
77.084058729 381.0
77.100769998 350.0
77.117481267 384.0
77.134192536 333.0
77.150903805 338.0
77.167615074 368.0
77.184326343 365.0
77.201037612 368.0
77.217748881 344.0
77.234460150 329.0
77.251171419 374.0
77.267882688 308.0
77.284593957 355.0
77.301305226 360.0
77.318016495 351.0
77.334727764 343.0
77.351439033 348.0
77.368150302 292.0
77.384861571 315.0
77.401572840 369.0
77.418284109 327.0
77.434995378 351.0
77.451706646 340.0
77.468417915 309.0
77.485129184 330.0
77.501840453 347.0
77.518551722 303.0
77.535262991 313.0
77.551974260 308.0
77.568685529 318.0
77.585396798 305.0
77.602108067 323.0
77.618819336 315.0
77.635530605 310.0
77.652241874 354.0
77.668953143 305.0
77.685664412 308.0
77.702375681 303.0
77.719086950 291.0
77.735798219 313.0
77.752509488 331.0
77.769220757 323.0
77.785932026 310.0
77.802643295 353.0
77.819354564 349.0
77.836065833 317.0
77.852777102 329.0
77.869488371 364.0
77.886199640 328.0
77.902910909 334.0
77.919622178 352.0
77.936333447 334.0
77.953044716 336.0
77.969755985 317.0
77.986467254 352.0
78.003178523 322.0
78.019889792 351.0
78.036601061 345.0
78.053312330 332.0
78.070023599 351.0
78.086734868 282.0
78.103446137 316.0
78.120157406 357.0
78.136868675 279.0
78.153579944 306.0
78.170291213 305.0
78.187002481 307.0
78.203713750 316.0
78.220425019 298.0
78.237136288 323.0
78.253847557 329.0
78.270558826 326.0
78.287270095 310.0
78.303981364 331.0
78.320692633 308.0
78.337403902 310.0
78.354115171 343.0
78.370826440 337.0
78.387537709 322.0
78.404248978 312.0
78.420960247 318.0
78.437671516 316.0
78.454382785 297.0
78.471094054 293.0
78.487805323 313.0
78.504516592 316.0
78.521227861 332.0
78.537939130 305.0
78.554650399 331.0
78.571361668 305.0
78.588072937 301.0
78.604784206 320.0
78.621495475 323.0
78.638206744 307.0
78.654918013 319.0
78.671629282 325.0
78.688340551 307.0
78.705051820 312.0
78.721763089 313.0
78.738474358 297.0
78.755185627 320.0
78.771896896 298.0
78.788608165 292.0
78.805319434 307.0
78.822030703 333.0
78.838741972 288.0
78.855453241 348.0
78.872164510 302.0
78.888875779 328.0
78.905587048 313.0
78.922298316 333.0
78.939009585 335.0
78.955720854 298.0
78.972432123 312.0
78.989143392 293.0
79.005854661 326.0
79.022565930 348.0
79.039277199 292.0
79.055988468 340.0
79.072699737 340.0
79.089411006 290.0
79.106122275 301.0
79.122833544 306.0
79.139544813 291.0
79.156256082 319.0
79.172967351 278.0
79.189678620 311.0
79.206389889 305.0
79.223101158 297.0
79.239812427 331.0
79.256523696 293.0
79.273234965 312.0
79.289946234 273.0
79.306657503 303.0
79.323368772 309.0
79.340080041 322.0
79.356791310 293.0
79.373502579 364.0
79.390213848 310.0
79.406925117 280.0
79.423636386 317.0
79.440347655 305.0
79.457058924 328.0
79.473770193 308.0
79.490481462 273.0
79.507192731 306.0
79.523904000 332.0
79.540615269 299.0
79.557326538 275.0
79.574037807 285.0
79.590749076 310.0
79.607460345 320.0
79.624171614 319.0
79.640882883 347.0
79.657594151 293.0
79.674305420 301.0
79.691016689 299.0
79.707727958 326.0
79.724439227 309.0
79.741150496 306.0
79.757861765 337.0
79.774573034 317.0
79.791284303 317.0
79.807995572 275.0
79.824706841 299.0
79.841418110 272.0
79.858129379 342.0
79.874840648 306.0
79.891551917 283.0
79.908263186 311.0
79.924974455 308.0
79.941685724 297.0
79.958396993 263.0
79.975108262 324.0
79.991819531 283.0
80.008530800 288.0
