EC-Lab ASCII FILE
Nb header lines : 3                           
mode	ox/red	error	control changes	Ns changes	counter inc.	Ns	time/s	control/mA	<Ewe>/V	I/mA	dQ/C	(Q-Qo)/C	half cycle	Q charge/discharge/mA.h	I Range	<Ece>/V	Energy charge/W.h	Energy discharge/W.h	Capacitance charge/µF	Capacitance discharge/µF	Q discharge/mA.h	Q charge/mA.h	Capacity/mA.h	Efficiency/%	cycle number	P/W	Ewe-Ece/V	
1	0	0	0	0	0	0	1.992651949661376E+002	-1.0000000E+002	-3.4953837E+000	-9.9805214E+001	0.0000000E+000	0.0000000E+000	0	0.000000000000000E+000	178	4.6597037E+000	0.000000000000000E+000	0.000000000000000E+000	0.000000000000000E+000	0.000000000000000E+000	0.000000000000000E+000	0.000000000000000E+000	0.000000000000000E+000	0.0000000E+000	0.000000000000000E+000	3.4885752E-001	-8.1550875E+000
1	0	0	0	0	0	0	2.002651949408755E+002	-1.0000000E+002	-3.4959989E+000	-9.9824272E+001	-9.9844947E-002	-9.9844947E-002	0	-2.773470762703154E-002	178	4.6579108E+000	0.000000000000000E+000	9.696050623004777E-005	0.000000000000000E+000	0.000000000000000E+000	2.773470762703154E-002	0.000000000000000E+000	2.773470762703154E-002	0.0000000E+000	0.000000000000000E+000	3.4898555E-001	-8.1539097E+000
1	0	0	0	0	0	0	2.012651949156134E+002	-1.0000000E+002	-3.4916320E+000	-9.9801392E+001	-1.9969501E-001	-1.9969501E-001	0	-5.547083500358793E-002	178	4.6596489E+000	0.000000000000000E+000	1.938048557100419E-004	0.000000000000000E+000	4.572950221118148E+007	5.547083500358793E-002	0.000000000000000E+000	5.547083500358793E-002	0.0000000E+000	0.000000000000000E+000	3.4846973E-001	-8.1512814E+000
1	0	0	0	0	0	0	2.022651948903513E+002	-1.0000000E+002	-3.5004821E+000	-9.9847168E+001	-2.9955080E-001	-2.9955080E-001	0	-8.320855597654979E-002	178	4.6596832E+000	0.000000000000000E+000	2.909002509815887E-004	0.000000000000000E+000	6.681595006381621E+007	8.320855597654979E-002	0.000000000000000E+000	8.320855597654979E-002	0.0000000E+000	0.000000000000000E+000	3.4951323E-001	-8.1601658E+000
1	0	0	0	0	0	0	2.032651948650891E+002	-1.0000000E+002	-3.5108726E+000	-9.9847168E+001	-3.9940700E-001	-3.9940700E-001	0	-1.109463887082206E-001	178	4.6606121E+000	0.000000000000000E+000	3.882842479709067E-004	0.000000000000000E+000	2.685315981405786E+007	1.109463887082206E-001	0.000000000000000E+000	1.109463887082206E-001	0.0000000E+000	0.000000000000000E+000	3.5055068E-001	-8.1714849E+000
1	0	0	0	0	0	0	2.042651948398270E+002	-1.0000000E+002	-3.5197325E+000	-9.9812843E+001	-4.9926680E-001	-4.9926680E-001	0	-1.386852231290605E-001	178	4.6609297E+000	0.000000000000000E+000	4.859175243083730E-004	0.000000000000000E+000	2.103627217567758E+007	1.386852231290605E-001	0.000000000000000E+000	1.386852231290605E-001	0.0000000E+000	0.000000000000000E+000	3.5131451E-001	-8.1806622E+000
1	0	0	0	0	0	0	2.052651948145649E+002	-1.0000000E+002	-3.5389929E+000	-9.9843353E+001	-5.9912717E-001	-5.9912717E-001	0	-1.664242148399353E-001	178	4.6638045E+000	0.000000000000000E+000	5.840856185207717E-004	0.000000000000000E+000	1.393512726667776E+007	1.664242148399353E-001	0.000000000000000E+000	1.664242148399353E-001	0.0000000E+000	0.000000000000000E+000	3.5334492E-001	-8.2027969E+000
1	0	0	0	0	0	0	2.062651947893028E+002	-1.0000000E+002	-3.5522263E+000	-9.9870056E+001	-6.9898868E-001	-6.9898868E-001	0	-1.941635211308797E-001	178	4.6638746E+000	0.000000000000000E+000	6.826219120101366E-004	0.000000000000000E+000	1.243144995441728E+007	1.941635211308797E-001	0.000000000000000E+000	1.941635211308797E-001	0.0000000E+000	0.000000000000000E+000	3.5476103E-001	-8.2161007E+000
1	0	0	0	0	0	0	2.072651947640406E+002	-1.0000000E+002	-3.5617046E+000	-9.9828087E+001	-7.9884744E-001	-7.9884744E-001	0	-2.219020658069187E-001	178	4.6673894E+000	0.000000000000000E+000	7.814184151681402E-004	0.000000000000000E+000	1.215794840161109E+007	2.219020658069187E-001	0.000000000000000E+000	2.219020658069187E-001	0.0000000E+000	0.000000000000000E+000	3.5555816E-001	-8.2290936E+000
1	0	0	0	0	0	0	2.082651947387785E+002	-1.0000000E+002	-3.5752258E+000	-9.9912010E+001	-8.9870632E-001	-8.9870632E-001	0	-2.496406435966492E-001	178	4.6685839E+000	0.000000000000000E+000	8.805900949716160E-004	0.000000000000000E+000	1.134343910057718E+007	2.496406435966492E-001	0.000000000000000E+000	2.496406435966492E-001	0.0000000E+000	0.000000000000000E+000	3.5720801E-001	-8.2438097E+000
1	0	0	0	0	0	0	2.092651947135164E+002	-1.0000000E+002	-3.5889266E+000	-9.9892937E+001	-9.9856669E-001	-9.9856669E-001	0	-2.773796353075240E-001	178	4.6713405E+000	0.000000000000000E+000	9.801432988963653E-004	0.000000000000000E+000	1.074563072297039E+007	2.773796353075240E-001	0.000000000000000E+000	2.773796353075240E-001	0.0000000E+000	0.000000000000000E+000	3.5850841E-001	-8.2602673E+000
1	0	0	0	0	0	0	2.102651946882543E+002	-1.0000000E+002	-3.5862281E+000	-9.9831909E+001	-1.0984235E+000	-1.0984235E+000	0	-3.051176336076524E-001	178	4.6722164E+000	0.000000000000000E+000	1.079618088732531E-003	0.000000000000000E+000	1.217369315284226E+007	3.051176336076524E-001	0.000000000000000E+000	3.051176336076524E-001	0.0000000E+000	0.000000000000000E+000	3.5802001E-001	-8.2584448E+000
1	0	0	0	0	0	0	2.112651946629921E+002	-1.0000000E+002	-3.5961938E+000	-9.9908195E+001	-1.1982832E+000	-1.1982832E+000	0	-3.328564431932237E-001	178	4.6692047E+000	0.000000000000000E+000	1.179372223518243E-003	0.000000000000000E+000	1.195951914107860E+007	3.328564431932237E-001	0.000000000000000E+000	3.328564431932237E-001	0.0000000E+000	0.000000000000000E+000	3.5928923E-001	-8.2653980E+000
1	0	0	0	0	0	0	2.122651946377300E+002	-1.0000000E+002	-3.6047790E+000	-9.9847168E+001	-1.2981362E+000	-1.2981362E+000	0	-3.605933984120687E-001	178	4.6661115E+000	0.000000000000000E+000	1.279357817355166E-003	0.000000000000000E+000	1.193357690950495E+007	3.605933984120687E-001	0.000000000000000E+000	3.605933984120687E-001	0.0000000E+000	0.000000000000000E+000	3.5992697E-001	-8.2708902E+000
1	0	0	0	0	0	0	2.132651946124679E+002	-1.0000000E+002	-3.6148024E+000	-9.9843361E+001	-1.3979849E+000	-1.3979849E+000	0	-3.883291284243266E-001	178	4.6663980E+000	0.000000000000000E+000	1.379616999674628E-003	0.000000000000000E+000	1.176720255750575E+007	3.883291284243266E-001	0.000000000000000E+000	3.883291284243266E-001	0.0000000E+000	0.000000000000000E+000	3.6091402E-001	-8.2812004E+000
1	0	0	0	0	0	0	2.142651945872058E+002	-1.0000000E+002	-3.6245942E+000	-9.9881500E+001	-1.4978334E+000	-1.4978334E+000	0	-4.160648253228929E-001	178	4.6690049E+000	0.000000000000000E+000	1.480147646107264E-003	0.000000000000000E+000	1.164764780261343E+007	4.160648253228929E-001	0.000000000000000E+000	4.160648253228929E-001	0.0000000E+000	0.000000000000000E+000	3.6202991E-001	-8.2935991E+000
1	0	0	0	0	0	0	2.152651945619436E+002	-1.0000000E+002	-3.6301124E+000	-9.9824280E+001	-1.5976869E+000	-1.5976869E+000	0	-4.438019129965041E-001	178	4.6687813E+000	0.000000000000000E+000	1.580836392277172E-003	0.000000000000000E+000	1.191294156757266E+007	4.438019129965041E-001	0.000000000000000E+000	4.438019129965041E-001	0.0000000E+000	0.000000000000000E+000	3.6237335E-001	-8.2988939E+000
1	0	0	0	0	0	0	2.162651945366815E+002	-1.0000000E+002	-3.6306646E+000	-9.9854797E+001	-1.6975385E+000	-1.6975385E+000	0	-4.715384708510505E-001	178	4.6706014E+000	0.000000000000000E+000	1.681538530645529E-003	0.000000000000000E+000	1.260557177482034E+007	4.715384708510505E-001	0.000000000000000E+000	4.715384708510505E-001	0.0000000E+000	0.000000000000000E+000	3.6253929E-001	-8.3012657E+000
1	0	0	0	0	0	0	2.172651945114194E+002	-1.0000000E+002	-3.6411500E+000	-9.9824272E+001	-1.7973729E+000	-1.7973729E+000	0	-4.992702603340149E-001	178	4.6726756E+000	0.000000000000000E+000	1.782514135857952E-003	0.000000000000000E+000	1.238276845902156E+007	4.992702603340149E-001	0.000000000000000E+000	4.992702603340149E-001	0.0000000E+000	0.000000000000000E+000	3.6347514E-001	-8.3138256E+000
1	0	0	0	0	0	0	2.182651944861573E+002	-1.0000000E+002	-3.6512961E+000	-9.9828094E+001	-1.8972116E+000	-1.8972116E+000	0	-5.270032087961832E-001	178	4.6745777E+000	0.000000000000000E+000	1.883775343494393E-003	0.000000000000000E+000	1.221664384276687E+007	5.270032087961832E-001	0.000000000000000E+000	5.270032087961832E-001	0.0000000E+000	0.000000000000000E+000	3.6450192E-001	-8.3258743E+000
1	0	0	0	0	0	0	2.192651944608951E+002	-1.0000000E+002	-3.6611726E+000	-9.9881500E+001	-1.9970547E+000	-1.9970547E+000	0	-5.547374155786302E-001	178	4.6765409E+000	0.000000000000000E+000	1.985315062236748E-003	0.000000000000000E+000	1.209062860409158E+007	5.547374155786302E-001	0.000000000000000E+000	5.547374155786302E-001	0.0000000E+000	0.000000000000000E+000	3.6568341E-001	-8.3377132E+000
1	0	0	0	0	0	0	2.202651944356330E+002	-1.0000000E+002	-3.6728606E+000	-9.9858604E+001	-2.0969017E+000	-2.0969017E+000	0	-5.824726819992065E-001	178	4.6767960E+000	0.000000000000000E+000	2.087182830124823E-003	0.000000000000000E+000	1.185616166899430E+007	5.824726819992065E-001	0.000000000000000E+000	5.824726819992065E-001	0.0000000E+000	0.000000000000000E+000	3.6676675E-001	-8.3496571E+000
1	0	0	0	0	0	0	2.212651944103709E+002	-1.0000000E+002	-3.6741021E+000	-9.9892944E+001	-2.1967449E+000	-2.1967449E+000	0	-6.102069218953451E-001	178	4.6783986E+000	0.000000000000000E+000	2.189081258280174E-003	0.000000000000000E+000	1.233411198376480E+007	6.102069218953451E-001	0.000000000000000E+000	6.102069218953451E-001	0.0000000E+000	0.000000000000000E+000	3.6701688E-001	-8.3525009E+000
1	0	0	0	0	0	0	2.222651943851088E+002	-1.0000000E+002	-3.6865633E+000	-9.9854805E+001	-2.2965846E+000	-2.2965846E+000	0	-6.379401683807373E-001	178	4.6773663E+000	0.000000000000000E+000	2.291321625670781E-003	0.000000000000000E+000	1.205148851786284E+007	6.379401683807373E-001	0.000000000000000E+000	6.379401683807373E-001	0.0000000E+000	0.000000000000000E+000	3.6812106E-001	-8.3639297E+000
1	0	0	0	0	0	0	2.232651943598466E+002	-1.0000000E+002	-3.6942611E+000	-9.9835724E+001	-2.3964245E+000	-2.3964245E+000	0	-6.656734810935127E-001	178	4.6782160E+000	0.000000000000000E+000	2.393775723280491E-003	0.000000000000000E+000	1.208714699388628E+007	6.656734810935127E-001	0.000000000000000E+000	6.656734810935127E-001	0.0000000E+000	0.000000000000000E+000	3.6881924E-001	-8.3724766E+000
1	0	0	0	0	0	0	2.242651943345845E+002	-1.0000000E+002	-3.7041714E+000	-9.9847168E+001	-2.4962676E+000	-2.4962676E+000	0	-6.934076547622681E-001	178	4.6797471E+000	0.000000000000000E+000	2.496507856717862E-003	0.000000000000000E+000	1.199133814890871E+007	6.934076547622681E-001	0.000000000000000E+000	6.934076547622681E-001	0.0000000E+000	0.000000000000000E+000	3.6985102E-001	-8.3839188E+000
1	0	0	0	0	0	0	2.252651943093224E+002	-1.0000000E+002	-3.7120273E+000	-9.9824280E+001	-2.5961163E+000	-2.5961163E+000	0	-7.211434178882175E-001	178	4.6811404E+000	0.000000000000000E+000	2.599463766941829E-003	0.000000000000000E+000	1.201747400089836E+007	7.211434178882175E-001	0.000000000000000E+000	7.211434178882175E-001	0.0000000E+000	0.000000000000000E+000	3.7055045E-001	-8.3931675E+000
1	0	0	0	0	0	0	2.262651942840603E+002	-1.0000000E+002	-3.7077312E+000	-9.9896767E+001	-2.6959629E+000	-2.6959629E+000	0	-7.488785849677192E-001	178	4.6778827E+000	0.000000000000000E+000	2.702298312561828E-003	0.000000000000000E+000	1.273287916493069E+007	7.488785849677192E-001	0.000000000000000E+000	7.488785849677192E-001	0.0000000E+000	0.000000000000000E+000	3.7039036E-001	-8.3856144E+000
1	0	0	0	0	0	0	2.272651942587981E+002	-1.0000000E+002	-3.5272403E+000	-9.9889130E+001	-2.7958190E+000	-2.7958190E+000	0	-7.766164011425443E-001	178	4.6753645E+000	0.000000000000000E+000	2.800136254951294E-003	0.000000000000000E+000	8.949078879086664E+007	7.766164011425443E-001	0.000000000000000E+000	7.766164011425443E-001	0.0000000E+000	0.000000000000000E+000	3.5233295E-001	-8.2026043E+000
1	0	0	0	0	0	0	2.282651942335360E+002	-1.0000000E+002	-3.4120538E+000	-9.9881493E+001	-2.8956714E+000	-2.8956714E+000	0	-8.043531576792399E-001	178	4.6735940E+000	0.000000000000000E+000	2.894775561143012E-003	0.000000000000000E+000	3.449484934292555E+007	8.043531576792399E-001	0.000000000000000E+000	8.043531576792399E-001	0.0000000E+000	0.000000000000000E+000	3.4080103E-001	-8.0856476E+000
1	0	0	0	0	0	0	2.292651942082739E+002	-1.0000000E+002	-3.4162359E+000	-9.9850983E+001	-2.9955239E+000	-2.9955239E+000	0	-8.320899804433187E-001	178	4.6757998E+000	0.000000000000000E+000	2.989531091480819E-003	0.000000000000000E+000	3.755533701987745E+007	8.320899804433187E-001	0.000000000000000E+000	8.320899804433187E-001	0.0000000E+000	0.000000000000000E+000	3.4111452E-001	-8.0920353E+000
1	0	0	0	0	0	0	2.302651941830118E+002	-1.0000000E+002	-3.4213700E+000	-9.9831909E+001	-3.0953834E+000	-3.0953834E+000	0	-8.598287238015069E-001	178	4.6782002E+000	0.000000000000000E+000	3.084435596661115E-003	0.000000000000000E+000	4.147704590180694E+007	8.598287238015069E-001	0.000000000000000E+000	8.598287238015069E-001	0.0000000E+000	0.000000000000000E+000	3.4156191E-001	-8.0995703E+000
1	0	0	0	0	0	0	2.312651941577496E+002	-1.0000000E+002	-3.4262476E+000	-9.9877678E+001	-3.1952438E+000	-3.1952438E+000	0	-8.875677320692275E-001	178	4.6791768E+000	0.000000000000000E+000	3.179476307074363E-003	0.000000000000000E+000	4.580911819194826E+007	8.875677320692275E-001	0.000000000000000E+000	8.875677320692275E-001	0.0000000E+000	0.000000000000000E+000	3.4220564E-001	-8.1054249E+000
1	0	0	0	0	0	0	2.322651941324875E+002	-1.0000000E+002	-3.4330833E+000	-9.9820457E+001	-3.2951002E+000	-3.2951002E+000	0	-9.153056144714355E-001	178	4.6808844E+000	0.000000000000000E+000	3.274702767810863E-003	0.000000000000000E+000	5.237337193571491E+007	9.153056144714355E-001	0.000000000000000E+000	9.153056144714355E-001	0.0000000E+000	0.000000000000000E+000	3.4269196E-001	-8.1139679E+000
1	0	0	0	0	0	0	2.332651941072254E+002	-1.0000000E+002	-3.4390583E+000	-9.9847168E+001	-3.3949523E+000	-3.3949523E+000	0	-9.430423047807481E-001	178	4.6836720E+000	0.000000000000000E+000	3.370090862939949E-003	0.000000000000000E+000	5.962274626715684E+007	9.430423047807481E-001	0.000000000000000E+000	9.430423047807481E-001	0.0000000E+000	0.000000000000000E+000	3.4338024E-001	-8.1227303E+000
1	0	0	0	0	0	0	2.342651940819633E+002	-1.0000000E+002	-3.4492822E+000	-9.9828094E+001	-3.4948022E+000	-3.4948022E+000	0	-9.707783990436130E-001	178	4.6809745E+000	0.000000000000000E+000	3.465760478328039E-003	0.000000000000000E+000	7.480842995958029E+007	9.707783990436130E-001	0.000000000000000E+000	9.707783990436130E-001	0.0000000E+000	0.000000000000000E+000	3.4433526E-001	-8.1302567E+000
1	0	0	0	0	0	0	2.352651940567011E+002	-1.0000000E+002	-3.4575605E+000	-9.9858604E+001	-3.5946538E+000	-3.5946538E+000	0	-9.985149568981595E-001	178	4.6839895E+000	0.000000000000000E+000	3.561661306260422E-003	0.000000000000000E+000	9.351745419359641E+007	9.985149568981595E-001	0.000000000000000E+000	9.985149568981595E-001	0.0000000E+000	0.000000000000000E+000	3.4526718E-001	-8.1415501E+000
1	0	0	0	0	0	0	2.362651940314390E+002	-1.0000000E+002	-3.4665201E+000	-9.9793762E+001	-3.6945038E+000	-3.6945038E+000	0	-1.026251051161024E+000	178	4.6855979E+000	0.000000000000000E+000	3.657809033714613E-003	0.000000000000000E+000	1.253275316839611E+008	1.026251051161024E+000	0.000000000000000E+000	1.026251051161024E+000	0.0000000E+000	0.000000000000000E+000	3.4593707E-001	-8.1521177E+000
1	0	0	0	0	0	0	2.372651940061769E+002	-1.0000000E+002	-3.4781001E+000	-9.9839539E+001	-3.7943509E+000	-3.7943509E+000	0	-1.053986350695292E+000	178	4.6875215E+000	0.000000000000000E+000	3.754275180728159E-003	0.000000000000000E+000	2.119891438999374E+008	1.053986350695292E+000	0.000000000000000E+000	1.053986350695292E+000	0.0000000E+000	0.000000000000000E+000	3.4725189E-001	-8.1656218E+000
1	0	0	0	0	0	0	2.382651939809148E+002	-1.0000000E+002	-3.4634230E+000	-9.9824280E+001	-3.8942027E+000	-3.8942027E+000	0	-1.081722974777222E+000	178	4.6877389E+000	0.000000000000000E+000	3.850338842895502E-003	0.000000000000000E+000	1.195426434316746E+008	1.081722974777222E+000	0.000000000000000E+000	1.081722974777222E+000	0.0000000E+000	0.000000000000000E+000	3.4573370E-001	-8.1511621E+000
1	0	0	0	0	0	0	2.392651939556526E+002	-1.0000000E+002	-3.4702942E+000	-9.9866241E+001	-3.9940639E+000	-3.9940639E+000	0	-1.109462181727092E+000	178	4.6854730E+000	0.000000000000000E+000	3.946602052916382E-003	0.000000000000000E+000	1.553830985131663E+008	1.109462181727092E+000	0.000000000000000E+000	1.109462181727092E+000	0.0000000E+000	0.000000000000000E+000	3.4656525E-001	-8.1557674E+000
1	0	0	0	0	0	0	2.402651939303905E+002	-1.0000000E+002	-3.4785898E+000	-9.9816658E+001	-4.0939231E+000	-4.0939231E+000	0	-1.137200858857897E+000	178	4.6841507E+000	0.000000000000000E+000	4.043093531505089E-003	0.000000000000000E+000	2.351601364028541E+008	1.137200858857897E+000	0.000000000000000E+000	1.137200858857897E+000	0.0000000E+000	0.000000000000000E+000	3.4722120E-001	-8.1627407E+000
1	0	0	0	0	0	0	2.412651939051284E+002	-1.0000000E+002	-3.4874563E+000	-9.9824272E+001	-4.1937833E+000	-4.1937833E+000	0	-1.164939800898234E+000	178	4.6853857E+000	0.000000000000000E+000	4.139831880281387E-003	0.000000000000000E+000	4.909294445994977E+008	1.164939800898234E+000	0.000000000000000E+000	1.164939800898234E+000	0.0000000E+000	0.000000000000000E+000	3.4813279E-001	-8.1728420E+000
1	0	0	0	0	0	0	2.422651938798663E+002	-1.0000000E+002	-3.4980481E+000	-9.9889130E+001	-4.2936425E+000	-4.2936425E+000	0	-1.192678478029039E+000	178	4.6886053E+000	0.000000000000000E+000	4.236863106202513E-003	0.000000000000000E+000	2.095269575334497E+009	1.192678478029039E+000	0.000000000000000E+000	1.192678478029039E+000	0.0000000E+000	0.000000000000000E+000	3.4941697E-001	-8.1866531E+000
1	0	0	0	0	0	0	2.432651938546041E+002	-1.0000000E+002	-3.5036340E+000	-9.9835724E+001	-4.3935027E+000	-4.3935027E+000	0	-1.220417420069377E+000	178	4.6892295E+000	0.000000000000000E+000	4.334050205992854E-003	0.000000000000000E+000	5.754336122907820E+008	1.220417420069377E+000	0.000000000000000E+000	1.220417420069377E+000	0.0000000E+000	0.000000000000000E+000	3.4978783E-001	-8.1928635E+000
1	0	0	0	0	0	0	2.442651938293420E+002	-1.0000000E+002	-3.5116904E+000	-9.9858604E+001	-4.4933639E+000	-4.4933639E+000	0	-1.248156627019246E+000	178	4.6902761E+000	0.000000000000000E+000	4.431461712137307E-003	0.000000000000000E+000	2.863562105902910E+008	1.248156627019246E+000	0.000000000000000E+000	1.248156627019246E+000	0.0000000E+000	0.000000000000000E+000	3.5067251E-001	-8.2019663E+000
1	0	0	0	0	0	0	2.452651938040799E+002	-1.0000000E+002	-3.5157716E+000	-9.9900558E+001	-4.5932193E+000	-4.5932193E+000	0	-1.275894244511922E+000	178	4.6915922E+000	0.000000000000000E+000	4.528980840730456E-003	0.000000000000000E+000	2.323002664801707E+008	1.275894244511922E+000	0.000000000000000E+000	1.275894244511922E+000	0.0000000E+000	0.000000000000000E+000	3.5122755E-001	-8.2073641E+000
1	0	0	0	0	0	0	2.462651937788178E+002	-1.0000000E+002	-3.5176826E+000	-9.9892944E+001	-4.6930833E+000	-4.6930833E+000	0	-1.303634246190389E+000	178	4.6919556E+000	0.000000000000000E+000	4.626561360636616E-003	0.000000000000000E+000	2.164337643488587E+008	1.303634246190389E+000	0.000000000000000E+000	1.303634246190389E+000	0.0000000E+000	0.000000000000000E+000	3.5139167E-001	-8.2096386E+000
1	0	0	0	0	0	0	2.472651937535557E+002	-1.0000000E+002	-3.5157735E+000	-9.9862427E+001	-4.7929420E+000	-4.7929420E+000	0	-1.331372790866428E+000	178	4.6923289E+000	0.000000000000000E+000	4.724083801901801E-003	0.000000000000000E+000	2.423777866194041E+008	1.331372790866428E+000	0.000000000000000E+000	1.331372790866428E+000	0.0000000E+000	0.000000000000000E+000	3.5109368E-001	-8.2081022E+000
1	0	0	0	0	0	0	2.482651937282935E+002	-1.0000000E+002	-3.5289671E+000	-9.9824272E+001	-4.8928027E+000	-4.8928027E+000	0	-1.359111865361532E+000	178	4.6954823E+000	0.000000000000000E+000	4.821974084347428E-003	0.000000000000000E+000	1.484093897121038E+008	1.359111865361532E+000	0.000000000000000E+000	1.359111865361532E+000	0.0000000E+000	0.000000000000000E+000	3.5227656E-001	-8.2244492E+000
1	0	0	0	0	0	0	2.492651937030314E+002	-1.0000000E+002	-3.5446684E+000	-9.9904381E+001	-4.9926682E+000	-4.9926682E+000	0	-1.386852264404297E+000	178	4.6968527E+000	0.000000000000000E+000	4.920304601237761E-003	0.000000000000000E+000	1.025829377617753E+008	1.386852264404297E+000	0.000000000000000E+000	1.386852264404297E+000	0.0000000E+000	0.000000000000000E+000	3.5412791E-001	-8.2415209E+000
1	0	0	0	0	0	0	2.502651936777693E+002	-1.0000000E+002	-3.5536597E+000	-9.9877686E+001	-5.0925417E+000	-5.0925417E+000	0	-1.414594915178087E+000	178	4.6958957E+000	0.000000000000000E+000	5.018892540639696E-003	0.000000000000000E+000	8.831892890959987E+007	1.414594915178087E+000	0.000000000000000E+000	1.414594915178087E+000	0.0000000E+000	0.000000000000000E+000	3.5493129E-001	-8.2495556E+000
1	0	0	0	0	0	0	2.512651936525072E+002	-1.0000000E+002	-3.5643044E+000	-9.9870056E+001	-5.1924105E+000	-5.1924105E+000	0	-1.442336241404216E+000	178	4.6949139E+000	0.000000000000000E+000	5.117771070432374E-003	0.000000000000000E+000	7.601746633437350E+007	1.442336241404216E+000	0.000000000000000E+000	1.442336241404216E+000	0.0000000E+000	0.000000000000000E+000	3.5596728E-001	-8.2592182E+000
1	0	0	0	0	0	0	2.522651936272450E+002	-1.0000000E+002	-3.5708394E+000	-9.9892937E+001	-5.2922812E+000	-5.2922812E+000	0	-1.470078097449409E+000	178	4.6965261E+000	0.000000000000000E+000	5.216832783168045E-003	0.000000000000000E+000	7.071409093225954E+007	1.470078097449409E+000	0.000000000000000E+000	1.470078097449409E+000	0.0000000E+000	0.000000000000000E+000	3.5670164E-001	-8.2673655E+000
1	0	0	0	0	0	0	2.532651936019829E+002	-1.0000000E+002	-3.5770400E+000	-9.9923462E+001	-5.3921466E+000	-5.3921466E+000	0	-1.497818496492174E+000	178	4.6958218E+000	0.000000000000000E+000	5.316061298968432E-003	0.000000000000000E+000	6.653595205803872E+007	1.497818496492174E+000	0.000000000000000E+000	1.497818496492174E+000	0.0000000E+000	0.000000000000000E+000	3.5743022E-001	-8.2728615E+000
1	0	0	0	0	0	0	2.542651935767208E+002	-1.0000000E+002	-3.5917406E+000	-9.9862419E+001	-5.4920073E+000	-5.4920073E+000	0	-1.525557570987278E+000	178	4.6958070E+000	0.000000000000000E+000	5.415692859266806E-003	0.000000000000000E+000	5.736272131882361E+007	1.525557570987278E+000	0.000000000000000E+000	1.525557570987278E+000	0.0000000E+000	0.000000000000000E+000	3.5867992E-001	-8.2875481E+000
1	0	0	0	0	0	0	2.552651935514587E+002	-1.0000000E+002	-3.5953290E+000	-9.9919640E+001	-5.5918674E+000	-5.5918674E+000	0	-1.553296513027615E+000	178	4.6974678E+000	0.000000000000000E+000	5.515423483296660E-003	0.000000000000000E+000	5.629575081428925E+007	1.553296513027615E+000	0.000000000000000E+000	1.553296513027615E+000	0.0000000E+000	0.000000000000000E+000	3.5924399E-001	-8.2927971E+000
1	0	0	0	0	0	0	2.562651935261965E+002	-1.0000000E+002	-3.6048083E+000	-9.9854805E+001	-5.6917324E+000	-5.6917324E+000	0	-1.581036779615614E+000	178	4.6977625E+000	0.000000000000000E+000	5.615421827384366E-003	0.000000000000000E+000	5.230916341645120E+007	1.581036779615614E+000	0.000000000000000E+000	1.581036779615614E+000	0.0000000E+000	0.000000000000000E+000	3.5995743E-001	-8.3025703E+000
1	0	0	0	0	0	0	2.572651935009344E+002	-1.0000000E+002	-3.6150081E+000	-9.9896767E+001	-5.7915950E+000	-5.7915950E+000	0	-1.608776383929782E+000	178	4.6958861E+000	0.000000000000000E+000	5.715700722108289E-003	0.000000000000000E+000	4.866508000424712E+007	1.608776383929782E+000	0.000000000000000E+000	1.608776383929782E+000	0.0000000E+000	0.000000000000000E+000	3.6112761E-001	-8.3108940E+000
1	0	0	0	0	0	0	2.582651934756723E+002	-1.0000000E+002	-3.6193001E+000	-9.9866234E+001	-5.8914595E+000	-5.8914595E+000	0	-1.636516518063015E+000	178	4.6971998E+000	0.000000000000000E+000	5.816100593100513E-003	0.000000000000000E+000	4.778101294949561E+007	1.636516518063015E+000	0.000000000000000E+000	1.636516518063015E+000	0.0000000E+000	0.000000000000000E+000	3.6144587E-001	-8.3164997E+000
1	0	0	0	0	0	0	2.592651934504102E+002	-1.0000000E+002	-3.6266992E+000	-9.9870056E+001	-5.9913235E+000	-5.9913235E+000	0	-1.664256519741482E+000	178	4.6981678E+000	0.000000000000000E+000	5.916705235251382E-003	0.000000000000000E+000	4.584014870566603E+007	1.664256519741482E+000	0.000000000000000E+000	1.664256519741482E+000	0.0000000E+000	0.000000000000000E+000	3.6219865E-001	-8.3248672E+000
1	0	0	0	0	0	0	2.602651934251480E+002	-1.0000000E+002	-3.6346669E+000	-9.9816658E+001	-6.0911779E+000	-6.0911779E+000	0	-1.691993872324626E+000	178	4.6986732E+000	0.000000000000000E+000	6.017521273125618E-003	0.000000000000000E+000	4.392632252207642E+007	1.691993872324626E+000	0.000000000000000E+000	1.691993872324626E+000	0.0000000E+000	0.000000000000000E+000	3.6280030E-001	-8.3333397E+000
1	0	0	0	0	0	0	2.612651933998859E+002	-1.0000000E+002	-3.6443624E+000	-9.9870056E+001	-6.1910372E+000	-6.1910372E+000	0	-1.719732549455431E+000	178	4.7023659E+000	0.000000000000000E+000	6.118611066463978E-003	0.000000000000000E+000	4.172881748146339E+007	1.719732549455431E+000	0.000000000000000E+000	1.719732549455431E+000	0.0000000E+000	0.000000000000000E+000	3.6396268E-001	-8.3467283E+000
1	0	0	0	0	0	0	2.622651933746238E+002	-1.0000000E+002	-3.6522117E+000	-9.9862419E+001	-6.2909069E+000	-6.2909069E+000	0	-1.747474140591092E+000	178	4.7042599E+000	0.000000000000000E+000	6.219929229246014E-003	0.000000000000000E+000	4.027139028455260E+007	1.747474140591092E+000	0.000000000000000E+000	1.747474140591092E+000	0.0000000E+000	0.000000000000000E+000	3.6471871E-001	-8.3564720E+000
1	0	0	0	0	0	0	2.632651933493617E+002	-1.0000000E+002	-3.6622512E+000	-9.9862419E+001	-6.3907690E+000	-6.3907690E+000	0	-1.775213612450494E+000	178	4.7043595E+000	0.000000000000000E+000	6.321518144295132E-003	0.000000000000000E+000	3.844016675438433E+007	1.775213612450494E+000	0.000000000000000E+000	1.775213612450494E+000	0.0000000E+000	0.000000000000000E+000	3.6572126E-001	-8.3666105E+000
1	0	0	0	0	0	0	2.642651933240995E+002	-1.0000000E+002	-3.6587512E+000	-9.9824287E+001	-6.4906263E+000	-6.4906263E+000	0	-1.802951759762234E+000	178	4.7063665E+000	0.000000000000000E+000	6.423005125425600E-003	0.000000000000000E+000	3.988037495989793E+007	1.802951759762234E+000	0.000000000000000E+000	1.802951759762234E+000	0.0000000E+000	0.000000000000000E+000	3.6523223E-001	-8.3651180E+000
1	0	0	0	0	0	0	2.652651932988374E+002	-1.0000000E+002	-3.6330340E+000	-9.9850983E+001	-6.5904779E+000	-6.5904779E+000	0	-1.830688317616781E+000	178	4.7084317E+000	0.000000000000000E+000	6.523772982900622E-003	0.000000000000000E+000	4.809334565136829E+007	1.830688317616781E+000	0.000000000000000E+000	1.830688317616781E+000	0.0000000E+000	0.000000000000000E+000	3.6276200E-001	-8.3414660E+000
1	0	0	0	0	0	0	2.662651932735753E+002	-1.0000000E+002	-3.6365240E+000	-9.9862427E+001	-6.6903348E+000	-6.6903348E+000	0	-1.858426332473755E+000	178	4.7065325E+000	0.000000000000000E+000	6.624642938586900E-003	0.000000000000000E+000	4.760953503957381E+007	1.858426332473755E+000	0.000000000000000E+000	1.858426332473755E+000	0.0000000E+000	0.000000000000000E+000	3.6315212E-001	-8.3430567E+000
1	0	0	0	0	0	0	2.672651932483132E+002	-1.0000000E+002	-3.6462626E+000	-9.9877686E+001	-6.7901926E+000	-6.7901926E+000	0	-1.886164612240262E+000	178	4.7063870E+000	0.000000000000000E+000	6.725783991956084E-003	0.000000000000000E+000	4.518848333682400E+007	1.886164612240262E+000	0.000000000000000E+000	1.886164612240262E+000	0.0000000E+000	0.000000000000000E+000	3.6418027E-001	-8.3526497E+000
1	0	0	0	0	0	0	2.682651932230510E+002	-1.0000000E+002	-3.6536078E+000	-9.9858604E+001	-6.8900537E+000	-6.8900537E+000	0	-1.913903819190131E+000	178	4.7113767E+000	0.000000000000000E+000	6.827132176090706E-003	0.000000000000000E+000	4.371612259099022E+007	1.913903819190131E+000	0.000000000000000E+000	1.913903819190131E+000	0.0000000E+000	0.000000000000000E+000	3.6484417E-001	-8.3649845E+000
1	0	0	0	0	0	0	2.692651931977889E+002	-1.0000000E+002	-3.6559563E+000	-9.9858620E+001	-6.9899092E+000	-6.9899092E+000	0	-1.941641436682807E+000	178	4.7111654E+000	0.000000000000000E+000	6.928539692631054E-003	0.000000000000000E+000	4.369856463609128E+007	1.941641436682807E+000	0.000000000000000E+000	1.941641436682807E+000	0.0000000E+000	0.000000000000000E+000	3.6507875E-001	-8.3671217E+000
1	0	0	0	0	0	0	2.702651931725268E+002	-1.0000000E+002	-3.6635520E+000	-9.9812843E+001	-7.0897651E+000	-7.0897651E+000	0	-1.969379186630249E+000	178	4.7121687E+000	0.000000000000000E+000	7.030158383197508E-003	0.000000000000000E+000	4.231351980522761E+007	1.969379186630249E+000	0.000000000000000E+000	1.969379186630249E+000	0.0000000E+000	0.000000000000000E+000	3.6566955E-001	-8.3757210E+000
1	0	0	0	0	0	0	2.712651931472647E+002	-1.0000000E+002	-3.6755855E+000	-9.9843353E+001	-7.1896205E+000	-7.1896205E+000	0	-1.997116804122925E+000	178	4.7159476E+000	0.000000000000000E+000	7.132110368089648E-003	0.000000000000000E+000	4.003427057210109E+007	1.997116804122925E+000	0.000000000000000E+000	1.997116804122925E+000	0.0000000E+000	0.000000000000000E+000	3.6698279E-001	-8.3915329E+000
1	0	0	0	0	0	0	2.722651931220025E+002	-1.0000000E+002	-3.6787398E+000	-9.9835724E+001	-7.2894764E+000	-7.2894764E+000	0	-2.024854554070367E+000	178	4.7155118E+000	0.000000000000000E+000	7.234150332399530E-003	0.000000000000000E+000	3.988967619127142E+007	2.024854554070367E+000	0.000000000000000E+000	2.024854554070367E+000	0.0000000E+000	0.000000000000000E+000	3.6726964E-001	-8.3942518E+000
1	0	0	0	0	0	0	2.732651930967404E+002	-1.0000000E+002	-3.6836231E+000	-9.9854790E+001	-7.3893366E+000	-7.3893366E+000	0	-2.052593496110704E+000	178	4.7170663E+000	0.000000000000000E+000	7.336330139388864E-003	0.000000000000000E+000	3.938370398232169E+007	2.052593496110704E+000	0.000000000000000E+000	2.052593496110704E+000	0.0000000E+000	0.000000000000000E+000	3.6782742E-001	-8.4006891E+000
1	0	0	0	0	0	0	2.742651930714783E+002	-1.0000000E+002	-3.5728199E+000	-9.9843353E+001	-7.4891996E+000	-7.4891996E+000	0	-2.080333232879639E+000	178	4.7145600E+000	0.000000000000000E+000	7.435439224274630E-003	0.000000000000000E+000	9.748885047375788E+007	2.080333232879639E+000	0.000000000000000E+000	2.080333232879639E+000	0.0000000E+000	0.000000000000000E+000	3.5672233E-001	-8.2873802E+000
1	0	0	0	0	0	0	2.752651930462162E+002	-1.0000000E+002	-3.3964787E+000	-9.9866241E+001	-7.5890651E+000	-7.5890651E+000	0	-2.108073631922404E+000	178	4.7044020E+000	0.000000000000000E+000	7.529658897447810E-003	0.000000000000000E+000	7.625652463477856E+007	2.108073631922404E+000	0.000000000000000E+000	2.108073631922404E+000	0.0000000E+000	0.000000000000000E+000	3.3919355E-001	-8.1008806E+000
1	0	0	0	0	0	0	2.762651930209540E+002	-1.0000000E+002	-3.3921337E+000	-9.9877678E+001	-7.6889267E+000	-7.6889267E+000	0	-2.135812971327040E+000	178	4.7066736E+000	0.000000000000000E+000	7.623754445812205E-003	0.000000000000000E+000	7.402797710046321E+007	2.135812971327040E+000	0.000000000000000E+000	2.135812971327040E+000	0.0000000E+000	0.000000000000000E+000	3.3879843E-001	-8.0988073E+000
1	0	0	0	0	0	0	2.772651929956919E+002	-1.0000000E+002	-3.3976831E+000	-9.9881500E+001	-7.7887859E+000	-7.7887859E+000	0	-2.163551648457845E+000	178	4.7082067E+000	0.000000000000000E+000	7.718001681525742E-003	0.000000000000000E+000	7.922218611621715E+007	2.163551648457845E+000	0.000000000000000E+000	2.163551648457845E+000	0.0000000E+000	0.000000000000000E+000	3.3936569E-001	-8.1058903E+000
1	0	0	0	0	0	0	2.782651929704298E+002	-1.0000000E+002	-3.4050548E+000	-9.9828094E+001	-7.8886433E+000	-7.8886433E+000	0	-2.191289795769586E+000	178	4.7095675E+000	0.000000000000000E+000	7.812451593385247E-003	0.000000000000000E+000	8.674171772225237E+007	2.191289795769586E+000	0.000000000000000E+000	2.191289795769586E+000	0.0000000E+000	0.000000000000000E+000	3.3992013E-001	-8.1146221E+000
1	0	0	0	0	0	0	2.792651929451677E+002	-1.0000000E+002	-3.4151762E+000	-9.9828094E+001	-7.9884977E+000	-7.9884977E+000	0	-2.219027148352729E+000	178	4.7116947E+000	0.000000000000000E+000	7.907179538479626E-003	0.000000000000000E+000	9.883977049808994E+007	2.219027148352729E+000	0.000000000000000E+000	2.219027148352729E+000	0.0000000E+000	0.000000000000000E+000	3.4093052E-001	-8.1268711E+000
1	0	0	0	0	0	0	2.802651929199055E+002	-1.0000000E+002	-3.4219623E+000	-9.9858620E+001	-8.0883512E+000	-8.0883512E+000	0	-2.246764236026340E+000	178	4.7124133E+000	0.000000000000000E+000	8.002094805734317E-003	0.000000000000000E+000	1.092480130872181E+008	2.246764236026340E+000	0.000000000000000E+000	2.246764236026340E+000	0.0000000E+000	0.000000000000000E+000	3.4171242E-001	-8.1343756E+000
1	0	0	0	0	0	0	2.812651928946434E+002	-1.0000000E+002	-3.4291871E+000	-9.9828094E+001	-8.1881981E+000	-8.1881981E+000	0	-2.274499469333225E+000	178	4.7131300E+000	0.000000000000000E+000	8.097204108879794E-003	0.000000000000000E+000	1.225561665637746E+008	2.274499469333225E+000	0.000000000000000E+000	2.274499469333225E+000	0.0000000E+000	0.000000000000000E+000	3.4232920E-001	-8.1423168E+000
1	0	0	0	0	0	0	2.822651928693813E+002	-1.0000000E+002	-3.4339767E+000	-9.9843361E+001	-8.2880487E+000	-8.2880487E+000	0	-2.302235762278239E+000	178	4.7145014E+000	0.000000000000000E+000	8.192449891217134E-003	0.000000000000000E+000	1.336303375105712E+008	2.302235762278239E+000	0.000000000000000E+000	2.302235762278239E+000	0.0000000E+000	0.000000000000000E+000	3.4285977E-001	-8.1484776E+000
1	0	0	0	0	0	0	2.832651928441192E+002	-1.0000000E+002	-3.4441638E+000	-9.9835724E+001	-8.3878946E+000	-8.3878946E+000	0	-2.329970730675591E+000	178	4.7152410E+000	0.000000000000000E+000	8.287973665345635E-003	0.000000000000000E+000	1.618189428366420E+008	2.329970730675591E+000	0.000000000000000E+000	2.329970730675591E+000	0.0000000E+000	0.000000000000000E+000	3.4385058E-001	-8.1594048E+000
1	0	0	0	0	0	0	2.842651928188570E+002	-1.0000000E+002	-3.4579167E+000	-9.9839546E+001	-8.4877377E+000	-8.4877377E+000	0	-2.357704904344347E+000	178	4.7170405E+000	0.000000000000000E+000	8.383876128650674E-003	0.000000000000000E+000	2.228798457377542E+008	2.357704904344347E+000	0.000000000000000E+000	2.357704904344347E+000	0.0000000E+000	0.000000000000000E+000	3.4523684E-001	-8.1749573E+000
1	0	0	0	0	0	0	2.852651927935949E+002	-1.0000000E+002	-3.4649796E+000	-9.9843361E+001	-8.5875854E+000	-8.5875854E+000	0	-2.385440402560764E+000	178	4.7176886E+000	0.000000000000000E+000	8.479979065514065E-003	0.000000000000000E+000	2.768473221422862E+008	2.385440402560764E+000	0.000000000000000E+000	2.385440402560764E+000	0.0000000E+000	0.000000000000000E+000	3.4595522E-001	-8.1826687E+000
1	0	0	0	0	0	0	2.862651927683328E+002	-1.0000000E+002	-3.4693036E+000	-9.9881493E+001	-8.6874409E+000	-8.6874409E+000	0	-2.413178020053440E+000	178	4.7178354E+000	0.000000000000000E+000	8.576209281957084E-003	0.000000000000000E+000	3.254301943412403E+008	2.413178020053440E+000	0.000000000000000E+000	2.413178020053440E+000	0.0000000E+000	0.000000000000000E+000	3.4651923E-001	-8.1871395E+000
1	0	0	0	0	0	0	2.872651927430707E+002	-1.0000000E+002	-3.4740379E+000	-9.9873871E+001	-8.7872934E+000	-8.7872934E+000	0	-2.440914842817518E+000	178	4.7200351E+000	0.000000000000000E+000	8.672568055067493E-003	0.000000000000000E+000	4.001322317638501E+008	2.440914842817518E+000	0.000000000000000E+000	2.440914842817518E+000	0.0000000E+000	0.000000000000000E+000	3.4696561E-001	-8.1940727E+000
1	0	0	0	0	0	0	2.882651927178085E+002	-1.0000000E+002	-3.4834716E+000	-9.9828094E+001	-8.8871365E+000	-8.8871365E+000	0	-2.468649016486274E+000	178	4.7209625E+000	0.000000000000000E+000	8.769179262279669E-003	0.000000000000000E+000	7.094256513712578E+008	2.468649016486274E+000	0.000000000000000E+000	2.468649016486274E+000	0.0000000E+000	0.000000000000000E+000	3.4774834E-001	-8.2044344E+000
1	0	0	0	0	0	0	2.892651926925464E+002	-1.0000000E+002	-3.4864402E+000	-9.9809029E+001	-8.9869852E+000	-8.9869852E+000	0	-2.496384779612223E+000	178	4.7226338E+000	0.000000000000000E+000	8.865878341312984E-003	0.000000000000000E+000	9.401912601017659E+008	2.496384779612223E+000	0.000000000000000E+000	2.496384779612223E+000	0.0000000E+000	0.000000000000000E+000	3.4797820E-001	-8.2090740E+000
1	0	0	0	0	0	0	2.902651926672843E+002	-1.0000000E+002	-3.4691539E+000	-9.9805206E+001	-9.0868320E+000	-9.0868320E+000	0	-2.524120012919108E+000	178	4.7214346E+000	0.000000000000000E+000	8.962096133582028E-003	0.000000000000000E+000	3.384928061387616E+008	2.524120012919108E+000	0.000000000000000E+000	2.524120012919108E+000	0.0000000E+000	0.000000000000000E+000	3.4623963E-001	-8.1905880E+000
1	0	0	0	0	0	0	2.912651926420222E+002	-1.0000000E+002	-3.4775972E+000	-9.9839539E+001	-9.1866770E+000	-9.1866770E+000	0	-2.551854716406928E+000	178	4.7250314E+000	0.000000000000000E+000	9.058546261790116E-003	0.000000000000000E+000	4.992318934466586E+008	2.551854716406928E+000	0.000000000000000E+000	2.551854716406928E+000	0.0000000E+000	0.000000000000000E+000	3.4720170E-001	-8.2026291E+000
1	0	0	0	0	0	0	2.922651926167600E+002	-1.0000000E+002	-3.4860826E+000	-9.9789955E+001	-9.2865200E+000	-9.2865200E+000	0	-2.579588890075684E+000	178	4.7264791E+000	0.000000000000000E+000	9.155229880762585E-003	0.000000000000000E+000	9.364899019042124E+008	2.579588890075684E+000	0.000000000000000E+000	2.579588890075684E+000	0.0000000E+000	0.000000000000000E+000	3.4787601E-001	-8.2125616E+000
1	0	0	0	0	0	0	2.932651925914979E+002	-1.0000000E+002	-3.4977689E+000	-9.9816650E+001	-9.3863678E+000	-9.3863678E+000	0	-2.607324388292101E+000	178	4.7213111E+000	0.000000000000000E+000	9.252242243265776E-003	0.000000000000000E+000	5.302974137931035E+009	2.607324388292101E+000	0.000000000000000E+000	2.607324388292101E+000	0.0000000E+000	0.000000000000000E+000	3.4913558E-001	-8.2190800E+000
1	0	0	0	0	0	0	2.942651925662358E+002	-1.0000000E+002	-3.5037644E+000	-9.9858604E+001	-9.4862204E+000	-9.4862204E+000	0	-2.635061211056180E+000	178	4.7221904E+000	0.000000000000000E+000	9.349425535184520E-003	0.000000000000000E+000	1.221580301495195E+009	2.635061211056180E+000	0.000000000000000E+000	2.635061211056180E+000	0.0000000E+000	0.000000000000000E+000	3.4988102E-001	-8.2259550E+000
1	0	0	0	0	0	0	2.952651925409737E+002	-1.0000000E+002	-3.5009403E+000	-9.9877678E+001	-9.5860672E+000	-9.5860672E+000	0	-2.662796444363064E+000	178	4.7231197E+000	0.000000000000000E+000	9.446524931832966E-003	0.000000000000000E+000	1.939924732220400E+009	2.662796444363064E+000	0.000000000000000E+000	2.662796444363064E+000	0.0000000E+000	0.000000000000000E+000	3.4966579E-001	-8.2240601E+000
1	0	0	0	0	0	0	2.962651925157115E+002	-1.0000000E+002	-3.5056329E+000	-9.9847168E+001	-9.6859093E+000	-9.6859093E+000	0	-2.690530353122287E+000	178	4.7256417E+000	0.000000000000000E+000	9.543749834196719E-003	0.000000000000000E+000	1.005386260146506E+009	2.690530353122287E+000	0.000000000000000E+000	2.690530353122287E+000	0.0000000E+000	0.000000000000000E+000	3.5002750E-001	-8.2312746E+000
1	0	0	0	0	0	0	2.972651924904494E+002	-1.0000000E+002	-3.5249977E+000	-9.9854805E+001	-9.7857475E+000	-9.7857475E+000	0	-2.718263202243381E+000	178	4.7278638E+000	0.000000000000000E+000	9.641508063873120E-003	0.000000000000000E+000	3.374529310203075E+008	2.718263202243381E+000	0.000000000000000E+000	2.718263202243381E+000	0.0000000E+000	0.000000000000000E+000	3.5198796E-001	-8.2528610E+000
1	0	0	0	0	0	0	2.982651924651873E+002	-1.0000000E+002	-3.5324175E+000	-9.9858604E+001	-9.8855944E+000	-9.8855944E+000	0	-2.745998435550266E+000	178	4.7300949E+000	0.000000000000000E+000	9.739480488365362E-003	0.000000000000000E+000	2.714429889166029E+008	2.745998435550266E+000	0.000000000000000E+000	2.745998435550266E+000	0.0000000E+000	0.000000000000000E+000	3.5274228E-001	-8.2625122E+000
1	0	0	0	0	0	0	2.992651924399252E+002	-1.0000000E+002	-3.5439200E+000	-9.9820457E+001	-9.9854450E+000	-9.9854450E+000	0	-2.773734728495280E+000	178	4.7290201E+000	0.000000000000000E+000	9.837775692772131E-003	0.000000000000000E+000	2.083722661147485E+008	2.773734728495280E+000	0.000000000000000E+000	2.773734728495280E+000	0.0000000E+000	0.000000000000000E+000	3.5375571E-001	-8.2729397E+000
1	0	0	0	0	0	0	3.002651924146630E+002	-1.0000000E+002	-3.5529575E+000	-9.9839546E+001	-1.0085293E+001	-1.0085293E+001	0	-2.801470226711697E+000	178	4.7309537E+000	0.000000000000000E+000	9.936318740141307E-003	0.000000000000000E+000	1.770633314078576E+008	2.801470226711697E+000	0.000000000000000E+000	2.801470226711697E+000	0.0000000E+000	0.000000000000000E+000	3.5472566E-001	-8.2839108E+000
1	0	0	0	0	0	0	3.012651923894009E+002	-1.0000000E+002	-3.5601919E+000	-9.9850983E+001	-1.0185145E+001	-1.0185145E+001	0	-2.829207049475776E+000	178	4.7336617E+000	0.000000000000000E+000	1.003506715103828E-002	0.000000000000000E+000	1.586643985960742E+008	2.829207049475776E+000	0.000000000000000E+000	2.829207049475776E+000	0.0000000E+000	0.000000000000000E+000	3.5548866E-001	-8.2938538E+000
1	0	0	0	0	0	0	3.022651923641388E+002	-1.0000000E+002	-3.5477297E+000	-9.9877678E+001	-1.0285002E+001	-1.0285002E+001	0	-2.856944931877984E+000	178	4.7360406E+000	0.000000000000000E+000	1.013347366110065E-002	0.000000000000000E+000	1.988174858854707E+008	2.856944931877984E+000	0.000000000000000E+000	2.856944931877984E+000	0.0000000E+000	0.000000000000000E+000	3.5433900E-001	-8.2837706E+000
1	0	0	0	0	0	0	3.032651923388767E+002	-1.0000000E+002	-3.5462196E+000	-9.9877678E+001	-1.0384856E+001	-1.0384856E+001	0	-2.884682284461127E+000	178	4.7366047E+000	0.000000000000000E+000	1.023183640413156E-002	0.000000000000000E+000	2.067842632725823E+008	2.884682284461127E+000	0.000000000000000E+000	2.884682284461127E+000	0.0000000E+000	0.000000000000000E+000	3.5418817E-001	-8.2828245E+000
1	0	0	0	0	0	0	3.042651923136145E+002	-1.0000000E+002	-3.5507996E+000	-9.9831909E+001	-1.0484710E+001	-1.0484710E+001	0	-2.912419372134738E+000	178	4.7383432E+000	0.000000000000000E+000	1.033032524417648E-002	0.000000000000000E+000	1.913242056810716E+008	2.912419372134738E+000	0.000000000000000E+000	2.912419372134738E+000	0.0000000E+000	0.000000000000000E+000	3.5448310E-001	-8.2891426E+000
1	0	0	0	0	0	0	3.052651922883524E+002	-1.0000000E+002	-3.5553520E+000	-9.9835724E+001	-1.0584563E+001	-1.0584563E+001	0	-2.940156459808350E+000	178	4.7359686E+000	0.000000000000000E+000	1.042894035355047E-002	0.000000000000000E+000	1.783320653156320E+008	2.940156459808350E+000	0.000000000000000E+000	2.940156459808350E+000	0.0000000E+000	0.000000000000000E+000	3.5495114E-001	-8.2913208E+000
1	0	0	0	0	0	0	3.062651922630903E+002	-1.0000000E+002	-3.5628395E+000	-9.9862419E+001	-1.0684413E+001	-1.0684413E+001	0	-2.967892487843832E+000	178	4.7350831E+000	0.000000000000000E+000	1.052775937003186E-002	0.000000000000000E+000	1.598490315676833E+008	2.967892487843832E+000	0.000000000000000E+000	2.967892487843832E+000	0.0000000E+000	0.000000000000000E+000	3.5579377E-001	-8.2979221E+000
1	0	0	0	0	0	0	3.072651922378282E+002	-1.0000000E+002	-3.5723538E+000	-9.9835724E+001	-1.0784266E+001	-1.0784266E+001	0	-2.995629310607910E+000	178	4.7392764E+000	0.000000000000000E+000	1.062684511533903E-002	0.000000000000000E+000	1.412385341726619E+008	2.995629310607910E+000	0.000000000000000E+000	2.995629310607910E+000	0.0000000E+000	0.000000000000000E+000	3.5664853E-001	-8.3116302E+000
1	0	0	0	0	0	0	3.082651922125660E+002	-1.0000000E+002	-3.5786798E+000	-9.9839546E+001	-1.0884121E+001	-1.0884121E+001	0	-3.023366928100586E+000	178	4.7400379E+000	0.000000000000000E+000	1.072610916676112E-002	0.000000000000000E+000	1.316400231841264E+008	3.023366928100586E+000	0.000000000000000E+000	3.023366928100586E+000	0.0000000E+000	0.000000000000000E+000	3.5729375E-001	-8.3187180E+000
1	0	0	0	0	0	0	3.092651921873039E+002	-1.0000000E+002	-3.5845284E+000	-9.9889130E+001	-1.0983974E+001	-1.0983974E+001	0	-3.051104015774197E+000	178	4.7384014E+000	0.000000000000000E+000	1.082553354654186E-002	0.000000000000000E+000	1.240712269740386E+008	3.051104015774197E+000	0.000000000000000E+000	3.051104015774197E+000	0.0000000E+000	0.000000000000000E+000	3.5805541E-001	-8.3229294E+000
1	0	0	0	0	0	0	3.102651921620418E+002	-1.0000000E+002	-3.5907032E+000	-9.9858604E+001	-1.1083825E+001	-1.1083825E+001	0	-3.078840308719211E+000	178	4.7394409E+000	0.000000000000000E+000	1.092512634373411E-002	0.000000000000000E+000	1.170360229495568E+008	3.078840308719211E+000	0.000000000000000E+000	3.078840308719211E+000	0.0000000E+000	0.000000000000000E+000	3.5856262E-001	-8.3301439E+000
1	0	0	0	0	0	0	3.112651921367797E+002	-1.0000000E+002	-3.5974927E+000	-9.9835724E+001	-1.1183675E+001	-1.1183675E+001	0	-3.106576336754693E+000	178	4.7420225E+000	0.000000000000000E+000	1.102490650197605E-002	0.000000000000000E+000	1.101906806735323E+008	3.106576336754693E+000	0.000000000000000E+000	3.106576336754693E+000	0.0000000E+000	0.000000000000000E+000	3.5915828E-001	-8.3395157E+000
1	0	0	0	0	0	0	3.122651921115175E+002	-1.0000000E+002	-3.6033344E+000	-9.9873863E+001	-1.1283525E+001	-1.1283525E+001	0	-3.134312364790175E+000	178	4.7432151E+000	0.000000000000000E+000	1.112484868666120E-002	0.000000000000000E+000	1.051238166317931E+008	3.134312364790175E+000	0.000000000000000E+000	3.134312364790175E+000	0.0000000E+000	0.000000000000000E+000	3.5987893E-001	-8.3465500E+000
1	0	0	0	0	0	0	3.132651920862554E+002	-1.0000000E+002	-3.6049840E+000	-9.9812843E+001	-1.1383370E+001	-1.1383370E+001	0	-3.162047333187527E+000	178	4.7431312E+000	0.000000000000000E+000	1.122483280522303E-002	0.000000000000000E+000	1.044487866344940E+008	3.162047333187527E+000	0.000000000000000E+000	3.162047333187527E+000	0.0000000E+000	0.000000000000000E+000	3.5982370E-001	-8.3481150E+000
1	0	0	0	0	0	0	3.142651920609933E+002	-1.0000000E+002	-3.6104708E+000	-9.9866234E+001	-1.1483215E+001	-1.1483215E+001	0	-3.189782036675347E+000	178	4.7463450E+000	0.000000000000000E+000	1.132496814153006E-002	0.000000000000000E+000	1.003146981025972E+008	3.189782036675347E+000	0.000000000000000E+000	3.189782036675347E+000	0.0000000E+000	0.000000000000000E+000	3.6056411E-001	-8.3568153E+000
1	0	0	0	0	0	0	3.152651920357312E+002	-1.0000000E+002	-3.6015832E+000	-9.9843361E+001	-1.1583069E+001	-1.1583069E+001	0	-3.217519124348958E+000	178	4.7482009E+000	0.000000000000000E+000	1.142486557168877E-002	0.000000000000000E+000	1.097043759441621E+008	3.217519124348958E+000	0.000000000000000E+000	3.217519124348958E+000	0.0000000E+000	0.000000000000000E+000	3.5959417E-001	-8.3497839E+000
1	0	0	0	0	0	0	3.162651920104690E+002	-1.0000000E+002	-3.6099637E+000	-9.9877686E+001	-1.1682919E+001	-1.1682919E+001	0	-3.245255152384440E+000	178	4.7509260E+000	0.000000000000000E+000	1.152499162484401E-002	0.000000000000000E+000	1.025133984514741E+008	3.245255152384440E+000	0.000000000000000E+000	3.245255152384440E+000	0.0000000E+000	0.000000000000000E+000	3.6055481E-001	-8.3608894E+000
1	0	0	0	0	0	0	3.172651919852069E+002	-1.0000000E+002	-3.6171899E+000	-9.9839546E+001	-1.1782771E+001	-1.1782771E+001	0	-3.272991975148519E+000	178	4.7516756E+000	0.000000000000000E+000	1.162532097956569E-002	0.000000000000000E+000	9.722478320401643E+007	3.272991975148519E+000	0.000000000000000E+000	3.272991975148519E+000	0.0000000E+000	0.000000000000000E+000	3.6113858E-001	-8.3688660E+000
1	0	0	0	0	0	0	3.182651919599448E+002	-1.0000000E+002	-3.6236169E+000	-9.9889130E+001	-1.1882626E+001	-1.1882626E+001	0	-3.300729327731662E+000	178	4.7507138E+000	0.000000000000000E+000	1.172583052008537E-002	0.000000000000000E+000	9.311083586010025E+007	3.300729327731662E+000	0.000000000000000E+000	3.300729327731662E+000	0.0000000E+000	0.000000000000000E+000	3.6195993E-001	-8.3743305E+000
1	0	0	0	0	0	0	3.182655919599347E+002	-1.0000000E+002	-3.6237948E+000	-9.9866241E+001	-1.1882666E+001	-1.1882666E+001	0	-3.300740453932020E+000	178	4.7519197E+000	0.000000000000000E+000	1.172587083915231E-002	0.000000000000000E+000	9.298156208315066E+007	3.300740453932020E+000	0.000000000000000E+000	3.300740453932020E+000	INF	0.000000000000000E+000	3.6189476E-001	-8.3757143E+000