EC-Lab ASCII FILE
Nb header lines : 3                           
mode	ox/red	error	control changes	time/s	control/V	Ewe/V	<I>/mA	(Q-Qo)/C	I Range	<Ece>/V	P/W	Ewe-Ece/V	
2	1	1	1	4.999999873689376E-002	2.1436575E-001	1.7714515E-001	7.328385114669800E-002	3.6935062E-006	178	7.3116755E-001	1.2981879E-005	-5.5402243E-001
2	1	0	1	5.470999861790915E-001	2.0536020E-001	2.1221146E-001	6.419910474765093E-002	7.0170834E-005	178	7.2956502E-001	1.3623786E-005	-5.1735353E-001
2	0	0	1	1.547899960896757E+000	1.8534423E-001	1.9207664E-001	-4.013645368837815E-002	2.4389115E-005	178	7.3361146E-001	-7.7092755E-006	-5.4153484E-001
2	0	0	1	2.548499935619475E+000	1.6533221E-001	1.7210039E-001	-3.964879287270257E-002	-2.0628395E-005	178	7.3391277E-001	-6.8235731E-006	-5.6181240E-001
2	0	0	1	3.549299910337140E+000	1.4531626E-001	1.5249802E-001	-3.878409073932024E-002	-6.4995176E-005	178	7.3418325E-001	-5.9144973E-006	-5.8168525E-001
2	0	0	1	4.549999885057332E+000	1.2530208E-001	1.3262253E-001	-4.073906621707701E-002	-1.1000112E-004	178	7.3445618E-001	-5.4029179E-006	-6.0183364E-001
2	0	0	1	5.550699859777524E+000	1.0528834E-001	1.1213475E-001	-4.181512874295740E-002	-1.5646052E-004	178	7.3472720E-001	-4.6889290E-006	-6.2259245E-001
2	0	0	1	6.551399834497715E+000	8.5274145E-002	9.2121951E-002	-4.095894004023393E-002	-2.0260898E-004	178	7.3489618E-001	-3.7732175E-006	-6.4277422E-001
2	0	0	1	7.552099809217907E+000	6.5259948E-002	7.2206475E-002	-3.950592130455913E-002	-2.4735587E-004	178	7.3504955E-001	-2.8525833E-006	-6.6284305E-001
2	0	0	1	8.552899783935572E+000	4.5244422E-002	5.2266821E-002	-3.662828203367652E-002	-2.8964775E-004	178	7.3522091E-001	-1.9144438E-006	-6.8295407E-001
2	0	0	1	9.553499758658290E+000	2.5232457E-002	3.1998154E-002	-3.745593022826865E-002	-3.3056847E-004	178	7.3538190E-001	-1.1985206E-006	-7.0338374E-001
2	0	0	1	1.055429973337596E+001	5.1685548E-003	1.1731210E-002	-3.770637645196406E-002	-3.7221692E-004	178	7.3553973E-001	-4.4234142E-007	-7.2380853E-001
2	0	0	1	1.155489970809867E+001	-1.4795493E-002	-8.0156159E-003	-3.700131566975455E-002	-4.1313798E-004	178	7.3573524E-001	2.9658833E-007	-7.4375087E-001
2	0	0	1	1.255569968281634E+001	-3.4811478E-002	-2.8482605E-002	-3.735673630836378E-002	-4.5422165E-004	178	7.3591346E-001	1.0640172E-006	-7.6439607E-001
2	0	0	1	1.355629965753906E+001	-5.4823898E-002	-4.8608273E-002	-3.489199957939282E-002	-4.9412082E-004	178	7.3611826E-001	1.6960398E-006	-7.8472650E-001
2	0	0	1	1.455709963225672E+001	-7.4839443E-002	-6.8536505E-002	-3.251056410803388E-002	-5.3139863E-004	178	7.3634958E-001	2.2281604E-006	-8.0488610E-001
2	0	0	1	1.555779960697691E+001	-9.4853647E-002	-8.8406332E-002	-3.632693761179553E-002	-5.6955108E-004	178	7.3663604E-001	3.2115313E-006	-8.2504237E-001
2	0	0	1	1.655849958169711E+001	-1.1486784E-001	-1.0827040E-001	-3.892549003832579E-002	-6.1122869E-004	178	7.3702443E-001	4.2144784E-006	-8.4529483E-001
2	0	0	1	1.755919955641730E+001	-1.3488162E-001	-1.2789907E-001	-4.669107065946754E-002	-6.5839157E-004	178	7.3750412E-001	5.9717445E-006	-8.6540318E-001
2	0	0	1	1.855989953113749E+001	-1.5489581E-001	-1.4818107E-001	-5.431246158684822E-002	-7.1339239E-004	178	7.3813409E-001	8.0480786E-006	-8.8631517E-001
2	0	0	1	1.956069950585515E+001	-1.7491181E-001	-1.6795509E-001	-5.730970524019768E-002	-7.7366584E-004	178	7.3888624E-001	9.6254562E-006	-9.0684134E-001
2	0	0	1	2.056129948057787E+001	-1.9492377E-001	-1.8794864E-001	-6.430717362031602E-002	-8.3947426E-004	178	7.3994380E-001	1.2086446E-005	-9.2789245E-001
2	0	0	1	2.156209945529554E+001	-2.1493977E-001	-2.0839290E-001	-6.858860689314870E-002	-9.1110490E-004	178	7.4114776E-001	1.4293379E-005	-9.4954067E-001
2	0	0	1	2.256269943001826E+001	-2.3495175E-001	-2.2862689E-001	-7.751585898506530E-002	-9.8904979E-004	178	7.4272442E-001	1.7722210E-005	-9.7135133E-001
2	0	0	1	2.356349940473592E+001	-2.5496775E-001	-2.4842969E-001	-8.674996180709282E-002	-1.0765287E-003	178	7.4450296E-001	2.1551266E-005	-9.9293268E-001
2	0	0	1	2.456419937945611E+001	-2.7498195E-001	-2.6875755E-001	-9.787163566610091E-002	-1.1739514E-003	178	7.4663645E-001	2.6303742E-005	-1.0153940E+000
2	0	0	1	2.556489935417630E+001	-2.9499570E-001	-2.8844926E-001	-1.074303494604170E-001	-1.2817928E-003	178	7.4893564E-001	3.0988205E-005	-1.0373849E+000
2	0	0	1	2.656559932889650E+001	-3.1500986E-001	-3.0833018E-001	-1.222603882184639E-001	-1.4021586E-003	178	7.5172406E-001	3.7696569E-005	-1.0600543E+000
2	0	0	1	2.756629930361669E+001	-3.3502409E-001	-3.2854369E-001	-1.367197068111459E-001	-1.5371203E-003	178	7.5484550E-001	4.4918397E-005	-1.0833892E+000
2	0	0	1	2.856709927833435E+001	-3.5503966E-001	-3.4872398E-001	-1.521347682672234E-001	-1.6871742E-003	178	7.5843358E-001	5.3053041E-005	-1.1071576E+000
2	0	0	1	2.956769925305707E+001	-3.7505209E-001	-3.6865494E-001	-1.679200234760808E-001	-1.8530133E-003	178	7.6255625E-001	6.1904546E-005	-1.1312112E+000
2	0	0	1	3.056849922777474E+001	-3.9506805E-001	-3.8854370E-001	-1.911650065695691E-001	-2.0381999E-003	178	7.6725769E-001	7.4275958E-005	-1.1558014E+000
2	0	0	1	3.156909920249745E+001	-4.1507959E-001	-4.0866834E-001	-2.183141198524550E-001	-2.2490984E-003	178	7.7273470E-001	8.9218069E-005	-1.1814030E+000
2	0	0	1	3.256989917721512E+001	-4.3509603E-001	-4.2858034E-001	-2.487776133793077E-001	-2.4892227E-003	178	7.7891523E-001	1.0662119E-004	-1.2074956E+000
2	0	0	1	3.357049915193784E+001	-4.5510799E-001	-4.4863111E-001	-2.846590866024218E-001	-2.7628003E-003	178	7.8622079E-001	1.2770692E-004	-1.2348518E+000
2	0	0	1	3.457129912665550E+001	-4.7512352E-001	-4.6820429E-001	-3.212559408791167E-001	-3.0726797E-003	178	7.9432386E-001	1.5041341E-004	-1.2625282E+000
2	0	0	1	3.557199910137570E+001	-4.9513823E-001	-4.8869884E-001	-3.716564170632128E-001	-3.4265285E-003	178	8.0399507E-001	1.8162806E-004	-1.2926939E+000
2	0	0	1	3.657269907609589E+001	-5.1515192E-001	-5.0871128E-001	-4.152904914068323E-001	-3.8270617E-003	178	8.1428260E-001	2.1126296E-004	-1.3229939E+000
2	0	0	1	3.757339905081608E+001	-5.3516573E-001	-5.2856326E-001	-4.771694140172817E-001	-4.2826626E-003	178	8.2643646E-001	2.5221423E-004	-1.3549998E+000
2	0	0	1	3.857409902553627E+001	-5.5518031E-001	-5.4890287E-001	-5.213569924646597E-001	-4.7888411E-003	178	8.3873034E-001	2.8617436E-004	-1.3876332E+000
2	0	0	1	3.957489900025394E+001	-5.7519591E-001	-5.6930679E-001	-5.904168687058817E-001	-5.3521027E-003	178	8.5242254E-001	3.3612835E-004	-1.4217293E+000
2	0	0	1	4.057549897497665E+001	-5.9520787E-001	-5.8938050E-001	-6.351186351953473E-001	-5.9730317E-003	178	8.6529064E-001	3.7432654E-004	-1.4546711E+000
2	0	0	1	4.157629894969432E+001	-6.1522388E-001	-6.0907423E-001	-7.078025605055682E-001	-6.6525838E-003	178	8.7854546E-001	4.3110430E-004	-1.4876196E+000
2	0	0	1	4.257689892441704E+001	-6.3523585E-001	-6.2888449E-001	-7.525617790552488E-001	-7.3916791E-003	178	8.8974684E-001	4.7327444E-004	-1.5186313E+000
2	0	0	1	4.357769889913470E+001	-6.5525180E-001	-6.4875019E-001	-8.231107762757848E-001	-8.1856074E-003	178	9.0047467E-001	5.3399330E-004	-1.5492249E+000
2	0	0	1	4.457839887385489E+001	-6.7526603E-001	-6.6945052E-001	-8.760172884258299E-001	-9.0431338E-003	178	9.0954590E-001	5.8645022E-004	-1.5789964E+000
2	0	0	1	4.557909884857509E+001	-6.9527972E-001	-6.8913662E-001	-9.513362345371164E-001	-9.9664163E-003	178	9.1872543E-001	6.5560063E-004	-1.6078620E+000
2	0	0	1	4.657979882329528E+001	-7.1529394E-001	-7.0901173E-001	-1.015760686173445E+000	-1.0961706E-002	178	9.2737055E-001	7.2018622E-004	-1.6363823E+000
2	0	0	1	4.758049879801547E+001	-7.3530811E-001	-7.2878999E-001	-1.065364709456706E+000	-1.2010566E-002	178	9.3399543E-001	7.7642716E-004	-1.6627854E+000
2	0	0	1	4.858129877273313E+001	-7.5532371E-001	-7.4869531E-001	-1.167806932646851E+000	-1.3138320E-002	178	9.4286495E-001	8.7433157E-004	-1.6915603E+000
2	0	0	1	4.958189874745585E+001	-7.7533615E-001	-7.6868922E-001	-1.206101056148447E+000	-1.4335861E-002	178	9.4848156E-001	9.2711690E-004	-1.7171707E+000
2	0	0	1	5.058269872217352E+001	-7.9535216E-001	-7.8872681E-001	-1.269983928912787E+000	-1.5580214E-002	178	9.5435596E-001	1.0016704E-003	-1.7430828E+000
2	0	0	1	5.158329869689624E+001	-8.1536365E-001	-8.0872554E-001	-1.349003670344182E+000	-1.6899938E-002	178	9.6168947E-001	1.0909737E-003	-1.7704151E+000
2	0	0	1	5.258409867161390E+001	-8.3538014E-001	-8.2891822E-001	-1.385333955481659E+000	-1.8276474E-002	178	9.6638370E-001	1.1483285E-003	-1.7953019E+000
2	0	0	1	5.358469864633662E+001	-8.5539204E-001	-8.4907776E-001	-1.449972697272429E+000	-1.9705078E-002	178	9.7190344E-001	1.2311395E-003	-1.8209813E+000
2	0	0	1	5.458549862105428E+001	-8.7540764E-001	-8.6896598E-001	-1.555188723823051E+000	-2.1223489E-002	178	9.8033530E-001	1.3514061E-003	-1.8493013E+000
2	0	0	1	5.558619859577448E+001	-8.9542222E-001	-8.8928872E-001	-1.597308697791725E+000	-2.2810452E-002	178	9.8493683E-001	1.4204686E-003	-1.8742256E+000
2	0	0	1	5.658689857049467E+001	-9.1543603E-001	-9.0884858E-001	-1.649969706335516E+000	-2.4444683E-002	178	9.8992735E-001	1.4995727E-003	-1.8987759E+000
2	0	0	1	5.758759854521486E+001	-9.3544984E-001	-9.2855728E-001	-1.786561995891720E+000	-2.6173826E-002	178	9.9878299E-001	1.6589251E-003	-1.9273403E+000
2	0	0	1	5.858829851993505E+001	-9.5546442E-001	-9.4853646E-001	-1.840344460883593E+000	-2.8003234E-002	178	1.0048388E+000	1.7456338E-003	-1.9533753E+000
2	0	0	1	5.958909849465272E+001	-9.7547990E-001	-9.6870524E-001	-1.877492724658929E+000	-2.9874610E-002	178	1.0088243E+000	1.8187370E-003	-1.9775295E+000
2	0	0	1	6.058969846937543E+001	-9.9549186E-001	-9.8866999E-001	-1.922244451200823E+000	-3.1786729E-002	178	1.0129647E+000	1.9004655E-003	-2.0016346E+000
2	0	0	1	6.159049844409310E+001	-1.0155085E+000	-1.0086679E+000	-2.080660400444600E+000	-3.3792589E-002	178	1.0225782E+000	2.0986954E-003	-2.0312462E+000
2	0	0	1	6.259109841881582E+001	-1.0355200E+000	-1.0287125E+000	-2.088942288075109E+000	-3.5885997E-002	178	1.0258392E+000	2.1489211E-003	-2.0545516E+000
2	0	0	1	6.359189839353348E+001	-1.0555359E+000	-1.0493228E+000	-2.105301338830397E+000	-3.7994206E-002	178	1.0282133E+000	2.2091407E-003	-2.0775361E+000
2	0	0	1	6.459249836825620E+001	-1.0755483E+000	-1.0687615E+000	-2.138534354959489E+000	-4.0127989E-002	178	1.0309225E+000	2.2855832E-003	-2.0996840E+000
2	0	0	1	6.559329834297387E+001	-1.0955640E+000	-1.0890676E+000	-2.180439485226532E+000	-4.2299900E-002	178	1.0344130E+000	2.3746460E-003	-2.1234806E+000
2	0	0	1	6.659399831769406E+001	-1.1155782E+000	-1.1090460E+000	-2.341968264682119E+000	-4.4575680E-002	178	1.0443821E+000	2.5973504E-003	-2.1534281E+000
2	0	0	1	6.759469829241425E+001	-1.1355923E+000	-1.1291163E+000	-2.349742795764016E+000	-4.6937790E-002	178	1.0467733E+000	2.6531329E-003	-2.1758895E+000
2	0	0	1	6.859539826713444E+001	-1.1556060E+000	-1.1492547E+000	-2.358823722615458E+000	-4.9302146E-002	178	1.0487671E+000	2.7108891E-003	-2.1980219E+000
2	0	0	1	6.959609824185463E+001	-1.1756203E+000	-1.1691185E+000	-2.375956599173080E+000	-5.1679168E-002	178	1.0506859E+000	2.7777748E-003	-2.2198043E+000
2	0	0	1	7.059689821657230E+001	-1.1956363E+000	-1.1890762E+000	-2.401615514583682E+000	-5.4077901E-002	178	1.0531498E+000	2.8557037E-003	-2.2422261E+000
2	0	0	1	7.159749819129502E+001	-1.2156478E+000	-1.2090806E+000	-2.426939545232241E+000	-5.6501243E-002	178	1.0558214E+000	2.9343655E-003	-2.2649021E+000
2	0	0	1	7.259829816601268E+001	-1.2356641E+000	-1.2291472E+000	-2.546368309145958E+000	-5.8998428E-002	178	1.0623670E+000	3.1298616E-003	-2.2915142E+000
2	0	0	1	7.359889814073540E+001	-1.2556763E+000	-1.2490604E+000	-2.664229543921010E+000	-6.1622087E-002	178	1.0701363E+000	3.3277837E-003	-2.3191967E+000
2	0	0	1	7.459969811545307E+001	-1.2756919E+000	-1.2689141E+000	-2.741898881236779E+000	-6.4337082E-002	178	1.0756012E+000	3.4792342E-003	-2.3445153E+000
2	0	0	1	7.560039809017326E+001	-1.2957065E+000	-1.2894145E+000	-2.834428870846011E+000	-6.7137823E-002	178	1.0819017E+000	3.6547538E-003	-2.3713162E+000
2	0	0	1	7.660109806489345E+001	-1.3157202E+000	-1.3090831E+000	-2.953408072289726E+000	-7.0045106E-002	178	1.0896331E+000	3.8662567E-003	-2.3987162E+000
2	0	0	1	7.760179803961364E+001	-1.3357339E+000	-1.3293363E+000	-3.113838196559918E+000	-7.3093221E-002	178	1.0991615E+000	4.1393382E-003	-2.4284978E+000
2	0	0	1	7.860249801433383E+001	-1.3557485E+000	-1.3496016E+000	-3.310873633357566E+000	-7.6322235E-002	178	1.1111338E+000	4.4683605E-003	-2.4607353E+000
2	0	0	1	7.960329798905150E+001	-1.3757641E+000	-1.3699367E+000	-3.544108281663824E+000	-7.9768352E-002	178	1.1244991E+000	4.8552039E-003	-2.4944358E+000
2	0	0	1	8.060389796377422E+001	-1.3957760E+000	-1.3894317E+000	-3.804250631393487E+000	-8.3461002E-002	178	1.1391065E+000	5.2857464E-003	-2.5285382E+000
2	0	0	1	8.160469793849188E+001	-1.4157921E+000	-1.4093719E+000	-4.077285849664541E+000	-8.7421618E-002	178	1.1546119E+000	5.7464121E-003	-2.5639839E+000
2	0	0	1	8.260529791321460E+001	-1.4358041E+000	-1.4292969E+000	-4.369180746010180E+000	-9.1666631E-002	178	1.1709328E+000	6.2448564E-003	-2.6002297E+000
2	0	0	1	8.360609788793226E+001	-1.4558201E+000	-1.4491166E+000	-4.666070498414292E+000	-9.6207991E-002	178	1.1872892E+000	6.7616804E-003	-2.6364059E+000
2	0	0	1	8.460669786265498E+001	-1.4758325E+000	-1.4690704E+000	-4.982634314410546E+000	-1.0105485E-001	178	1.2039040E+000	7.3198406E-003	-2.6729746E+000
2	0	0	1	8.560749783737265E+001	-1.4958481E+000	-1.4895427E+000	-5.308784249164177E+000	-1.0622535E-001	178	1.2210940E+000	7.9076607E-003	-2.7106366E+000
2	0	0	1	8.660819781209284E+001	-1.5158622E+000	-1.5096189E+000	-6.180666199244300E+000	-1.1197747E-001	178	1.2607491E+000	9.3304506E-003	-2.7703681E+000
2	0	0	1	8.760889778681303E+001	-1.5358764E+000	-1.5296776E+000	-6.845803646484470E+000	-1.1854266E-001	178	1.2937148E+000	1.0471873E-002	-2.8233924E+000
2	0	0	1	8.860959776153322E+001	-1.5558901E+000	-1.5496614E+000	-7.240759116578488E+000	-1.2561677E-001	178	1.3141184E+000	1.1220725E-002	-2.8637798E+000
2	0	0	1	8.961029773625341E+001	-1.5759044E+000	-1.5699377E+000	-7.685133904423097E+000	-1.3311276E-001	178	1.3355683E+000	1.2065182E-002	-2.9055061E+000
2	0	0	1	9.061109771097108E+001	-1.5959204E+000	-1.5899239E+000	-8.193695884350717E+000	-1.4108732E-001	178	1.3594856E+000	1.3027352E-002	-2.9494095E+000
2	0	0	1	9.161169768569380E+001	-1.6159325E+000	-1.6097566E+000	-8.780173322621311E+000	-1.4961073E-001	178	1.3865440E+000	1.4133942E-002	-2.9963007E+000
2	0	0	1	9.261249766041146E+001	-1.6359484E+000	-1.6297599E+000	-9.414498816174955E+000	-1.5875021E-001	178	1.4155937E+000	1.5343373E-002	-3.0453537E+000
2	0	0	1	9.361309763513418E+001	-1.6559602E+000	-1.6503718E+000	-1.009841632974964E+001	-1.6855048E-001	178	1.4461803E+000	1.6666142E-002	-3.0965521E+000
2	0	0	1	9.461389760985185E+001	-1.6759762E+000	-1.6703638E+000	-1.079675028675543E+001	-1.7904320E-001	178	1.4773881E+000	1.8034501E-002	-3.1477518E+000
2	0	0	1	9.561459758457204E+001	-1.6959906E+000	-1.6900445E+000	-1.152764491333318E+001	-1.9025125E-001	178	1.5090355E+000	1.9482233E-002	-3.1990800E+000
2	0	0	1	9.661529755929223E+001	-1.7160043E+000	-1.7099711E+000	-1.229068221939758E+001	-2.0220926E-001	178	1.5422195E+000	2.1016711E-002	-3.2521906E+000
2	0	0	1	9.761599753401242E+001	-1.7360182E+000	-1.7301838E+000	-1.307699532376174E+001	-2.1494304E-001	178	1.5758157E+000	2.2625607E-002	-3.3059995E+000
2	0	0	1	9.861669750873261E+001	-1.7560327E+000	-1.7499853E+000	-1.387754777183108E+001	-2.2847101E-001	178	1.6099830E+000	2.4285505E-002	-3.3599682E+000
2	0	0	1	9.961749748345028E+001	-1.7760483E+000	-1.7703888E+000	-1.471206652789783E+001	-2.4281812E-001	178	1.6452781E+000	2.6046079E-002	-3.4156671E+000
2	0	0	1	1.006180974581730E+002	-1.7960601E+000	-1.7902449E+000	-1.554296253544766E+001	-2.5799578E-001	178	1.6796398E+000	2.7825709E-002	-3.4698849E+000
2	0	0	1	1.016188974328907E+002	-1.8160764E+000	-1.8106382E+000	-1.641481358938509E+001	-2.7402699E-001	178	1.7157904E+000	2.9721288E-002	-3.5264287E+000
2	0	0	1	1.026194974076134E+002	-1.8360882E+000	-1.8300697E+000	-1.730546956987780E+001	-2.9094034E-001	178	1.7520097E+000	3.1670216E-002	-3.5820794E+000
2	0	0	1	1.036202973823310E+002	-1.8561043E+000	-1.8499755E+000	-1.818472778820222E+001	-3.0874628E-001	178	1.7885317E+000	3.3641301E-002	-3.6385071E+000
2	0	0	1	1.046208973570538E+002	-1.8761164E+000	-1.8703933E+000	-1.909552711844367E+001	-3.2744348E-001	178	1.8254389E+000	3.5716146E-002	-3.6958323E+000
2	0	0	1	1.056216973317714E+002	-1.8961321E+000	-1.8902415E+000	-2.002101222123230E+001	-3.4706393E-001	178	1.8628662E+000	3.7844550E-002	-3.7531075E+000
2	0	0	1	1.066223973064916E+002	-1.9161464E+000	-1.9103574E+000	-2.131563096493721E+001	-3.6778608E-001	178	1.9118959E+000	4.0720474E-002	-3.8222532E+000
2	0	0	1	1.076230972812118E+002	-1.9361604E+000	-1.9306166E+000	-2.261929763273577E+001	-3.8983750E-001	178	1.9629850E+000	4.3669190E-002	-3.8936017E+000
2	0	0	1	1.086237972559320E+002	-1.9561741E+000	-1.9504915E+000	-2.372058292982911E+001	-4.1308349E-001	178	2.0050251E+000	4.6266798E-002	-3.9555168E+000
2	0	0	1	1.096244972306522E+002	-1.9761883E+000	-1.9701492E+000	-2.477508824583674E+001	-4.3740246E-001	178	2.0463319E+000	4.8810620E-002	-4.0164809E+000
2	0	0	1	1.106252972053699E+002	-1.9962044E+000	-1.9903015E+000	-2.571820598330484E+001	-4.6272132E-001	178	2.0835686E+000	5.1186983E-002	-4.0738702E+000
2	0	0	1	1.116258971800926E+002	-2.0162163E+000	-2.0102780E+000	-2.665964218318436E+001	-4.8897922E-001	178	2.1206827E+000	5.3593293E-002	-4.1309605E+000
2	0	0	1	1.126266971548102E+002	-2.0362325E+000	-2.0302582E+000	-2.759036862845323E+001	-5.1617235E-001	178	2.1568203E+000	5.6015570E-002	-4.1870785E+000
2	0	0	1	1.136272971295330E+002	-2.0562444E+000	-2.0504234E+000	-2.847708723190466E+001	-5.4427010E-001	178	2.1913209E+000	5.8390085E-002	-4.2417440E+000
2	0	0	1	1.146280971042506E+002	-2.0762603E+000	-2.0703351E+000	-2.938980298873820E+001	-5.7327157E-001	178	2.2265241E+000	6.0846742E-002	-4.2968593E+000
2	0	0	1	1.156286970789733E+002	-2.0962729E+000	-2.0907128E+000	-3.032192548941583E+001	-6.0319060E-001	178	2.2610040E+000	6.3394435E-002	-4.3517170E+000
2	0	0	1	1.166294970536910E+002	-2.1162882E+000	-2.1106467E+000	-3.132114896965390E+001	-6.3407749E-001	178	2.2997060E+000	6.6107884E-002	-4.4103527E+000
2	0	0	1	1.176301970284112E+002	-2.1363025E+000	-2.1304991E+000	-3.224975196042850E+001	-6.6593677E-001	178	2.3352451E+000	6.8708070E-002	-4.4657440E+000
2	0	0	1	1.186308970031314E+002	-2.1563168E+000	-2.1506495E+000	-3.311239970056550E+001	-6.9868970E-001	178	2.3680570E+000	7.1213171E-002	-4.5187063E+000
2	0	0	1	1.196316969778491E+002	-2.1763322E+000	-2.1707785E+000	-3.393592483859629E+001	-7.3228884E-001	178	2.3995273E+000	7.3667377E-002	-4.5703058E+000
2	0	0	1	1.206322969525718E+002	-2.1963446E+000	-2.1911788E+000	-3.490444993508436E+001	-7.6678002E-001	178	2.4353168E+000	7.6481894E-002	-4.6264954E+000
2	0	0	1	1.216330969272894E+002	-2.2163608E+000	-2.2108214E+000	-3.574922516037338E+001	-8.0217850E-001	178	2.4670143E+000	7.9035148E-002	-4.6778355E+000
2	0	0	1	1.226336969020122E+002	-2.2363727E+000	-2.2304423E+000	-3.667027921249758E+001	-8.3845443E-001	178	2.5015879E+000	8.1790939E-002	-4.7320299E+000
2	0	0	1	1.236344968767298E+002	-2.2563887E+000	-2.2505774E+000	-3.800732876072516E+001	-8.7586135E-001	178	2.5489674E+000	8.5538439E-002	-4.7995448E+000
2	0	0	1	1.246350968514525E+002	-2.2764006E+000	-2.2706454E+000	-3.979350204492090E+001	-9.1489887E-001	178	2.6120398E+000	9.0356931E-002	-4.8826852E+000
2	0	0	1	1.256358968261702E+002	-2.2964160E+000	-2.2906368E+000	-4.069702722825855E+001	-9.5522559E-001	178	2.6451561E+000	9.3222104E-002	-4.9357929E+000
2	0	0	1	1.266365968008904E+002	-2.3164303E+000	-2.3106611E+000	-4.157759639320795E+001	-9.9643856E-001	178	2.6774275E+000	9.6071735E-002	-4.9880886E+000
2	0	0	1	1.276372967756106E+002	-2.3364446E+000	-2.3309658E+000	-4.242859070421775E+001	-1.0385183E+000	178	2.7086110E+000	9.8899595E-002	-5.0395765E+000
2	0	0	1	1.286379967503308E+002	-2.3564587E+000	-2.3509097E+000	-4.332863446661656E+001	-1.0814750E+000	178	2.7411098E+000	1.0186171E-001	-5.0920196E+000
2	0	0	1	1.296386967250510E+002	-2.3764729E+000	-2.3709173E+000	-4.423264527433389E+001	-1.1253346E+000	178	2.7737861E+000	1.0487194E-001	-5.1447034E+000
2	0	0	1	1.306394966997686E+002	-2.3964887E+000	-2.3909202E+000	-4.508746134118837E+001	-1.1700748E+000	178	2.8045516E+000	1.0780052E-001	-5.1954718E+000
2	0	0	1	1.316400966744914E+002	-2.4165006E+000	-2.4108334E+000	-4.628541189680791E+001	-1.2158281E+000	178	2.8462448E+000	1.1158641E-001	-5.2570782E+000
2	0	0	1	1.326408966492090E+002	-2.4365165E+000	-2.4306877E+000	-4.739920991991130E+001	-1.2627634E+000	178	2.8861198E+000	1.1521267E-001	-5.3168077E+000
2	0	0	1	1.336414966239317E+002	-2.4565284E+000	-2.4513280E+000	-4.828536793019407E+001	-1.3106780E+000	178	2.9170787E+000	1.1836328E-001	-5.3684068E+000
2	0	0	1	1.346422965986494E+002	-2.4765444E+000	-2.4710279E+000	-4.912106552394630E+001	-1.3594605E+000	178	2.9473317E+000	1.2137952E-001	-5.4183598E+000
2	0	0	1	1.356428965733721E+002	-2.4965570E+000	-2.4908328E+000	-5.001498988250160E+001	-1.4091041E+000	178	2.9789023E+000	1.2457898E-001	-5.4697351E+000
2	0	0	1	1.366436965480898E+002	-2.5165725E+000	-2.5109675E+000	-5.092160730294404E+001	-1.4596636E+000	178	3.0100787E+000	1.2786250E-001	-5.5210462E+000
2	0	0	1	1.376443965228100E+002	-2.5365868E+000	-2.5307629E+000	-5.170992761736250E+001	-1.5110576E+000	178	3.0383589E+000	1.3086557E-001	-5.5691218E+000
2	0	0	1	1.386450964975302E+002	-2.5566010E+000	-2.5512683E+000	-5.237893015900977E+001	-1.5631945E+000	178	3.0627258E+000	1.3363270E-001	-5.6139941E+000
2	0	0	1	1.396457964722504E+002	-2.5766146E+000	-2.5707879E+000	-5.327048087369548E+001	-1.6161149E+000	178	3.0938032E+000	1.3694711E-001	-5.6645908E+000
2	0	0	1	1.406464964469706E+002	-2.5966287E+000	-2.5905488E+000	-5.415672532921269E+001	-1.6699198E+000	178	3.1250885E+000	1.4029564E-001	-5.7156372E+000
2	0	0	1	1.416472964216882E+002	-2.6166451E+000	-2.6107583E+000	-5.495871515291844E+001	-1.7245690E+000	178	3.1526165E+000	1.4348392E-001	-5.7633748E+000
2	0	0	1	1.426478963964109E+002	-2.6366563E+000	-2.6312957E+000	-5.595733544717280E+001	-1.7801025E+000	178	3.1874213E+000	1.4724030E-001	-5.8187170E+000
2	0	0	1	1.436486963711286E+002	-2.6566727E+000	-2.6508410E+000	-5.691921527618257E+001	-1.8366226E+000	178	3.2206011E+000	1.5088379E-001	-5.8714418E+000
2	0	0	1	1.446492963458513E+002	-2.6766849E+000	-2.6710577E+000	-5.807243409012455E+001	-1.8941900E+000	178	3.2595758E+000	1.5511483E-001	-5.9306335E+000
2	0	0	1	1.456500963205690E+002	-2.6967006E+000	-2.6911180E+000	-5.881031414323843E+001	-1.9527216E+000	178	3.2860796E+000	1.5826550E-001	-5.9771976E+000
2	0	0	1	1.466507962952892E+002	-2.7167151E+000	-2.7114630E+000	-5.956155807369251E+001	-2.0119939E+000	178	3.3121221E+000	1.6149896E-001	-6.0235853E+000
2	0	0	1	1.476514962700094E+002	-2.7367284E+000	-2.7314696E+000	-6.032726932296396E+001	-2.0720239E+000	178	3.3389146E+000	1.6478211E-001	-6.0703840E+000
2	0	0	1	1.486521962447296E+002	-2.7567425E+000	-2.7513509E+000	-6.278041933957871E+001	-2.1336143E+000	178	3.4199464E+000	1.7273097E-001	-6.1712971E+000
2	0	0	1	1.496528962194498E+002	-2.7767570E+000	-2.7712264E+000	-6.487105575379168E+001	-2.1976283E+000	178	3.4875851E+000	1.7977238E-001	-6.2588115E+000
2	0	0	1	1.506536961941674E+002	-2.7967727E+000	-2.7911491E+000	-6.557307333110998E+001	-2.2629437E+000	178	3.5114095E+000	1.8302423E-001	-6.3025589E+000
2	0	0	1	1.516542961688901E+002	-2.8167849E+000	-2.8113203E+000	-6.639363932187456E+001	-2.3290091E+000	178	3.5390394E+000	1.8665379E-001	-6.3503599E+000
2	0	0	1	1.526550961436078E+002	-2.8368011E+000	-2.8314612E+000	-6.732301940628679E+001	-2.3959744E+000	178	3.5712471E+000	1.9062252E-001	-6.4027081E+000
2	0	0	1	1.536556961183305E+002	-2.8568125E+000	-2.8516259E+000	-6.811012995711147E+001	-2.4637766E+000	178	3.5983617E+000	1.9422461E-001	-6.4499874E+000
2	0	0	1	1.546564960930482E+002	-2.8768287E+000	-2.8712971E+000	-6.882465341585720E+001	-2.5323510E+000	178	3.6229775E+000	1.9761603E-001	-6.4942746E+000
2	0	0	1	1.556571960677684E+002	-2.8968427E+000	-2.8911493E+000	-6.951477112226036E+001	-2.6016085E+000	178	3.6473868E+000	2.0097758E-001	-6.5385361E+000
2	0	0	1	1.566578960424886E+002	-2.9168565E+000	-2.9111278E+000	-7.119709275662899E+001	-2.6720362E+000	178	3.7040350E+000	2.0726384E-001	-6.6151628E+000
2	0	0	1	1.576585960172088E+002	-2.9368706E+000	-2.9314728E+000	-7.217296145060004E+001	-2.7438185E+000	178	3.7362006E+000	2.1157308E-001	-6.6676731E+000
2	0	0	1	1.586592959919290E+002	-2.9568849E+000	-2.9507926E+000	-7.272503080637352E+001	-2.8163745E+000	178	3.7568150E+000	2.1459648E-001	-6.7076073E+000
2	0	0	1	1.596599959666491E+002	-2.9768991E+000	-2.9713776E+000	-7.464076801600345E+001	-2.8901479E+000	178	3.8173184E+000	2.2178590E-001	-6.7886963E+000
2	0	0	1	1.606606959413693E+002	-2.9969130E+000	-2.9914649E+000	-7.558172320451763E+001	-2.9653554E+000	178	3.8491971E+000	2.2610007E-001	-6.8406620E+000
2	0	0	1	1.616614959160870E+002	-3.0169291E+000	-3.0113366E+000	-7.635115754481706E+001	-3.0414329E+000	178	3.8751163E+000	2.2991903E-001	-6.8864527E+000
2	0	0	1	1.626620958908097E+002	-3.0369403E+000	-3.0313466E+000	-7.724948251137505E+001	-3.1183498E+000	178	3.9049811E+000	2.3416996E-001	-6.9363279E+000
2	0	0	1	1.636628958655274E+002	-3.0569565E+000	-3.0510011E+000	-7.826331806235021E+001	-3.1962452E+000	178	3.9393818E+000	2.3878147E-001	-6.9903831E+000
2	0	0	1	1.646634958402501E+002	-3.0769687E+000	-3.0709887E+000	-7.924143621049870E+001	-3.2751067E+000	178	3.9719849E+000	2.4334955E-001	-7.0429735E+000
2	0	0	1	1.656642958149678E+002	-3.0969846E+000	-3.0907741E+000	-8.008324537990597E+001	-3.3548784E+000	178	3.9999034E+000	2.4751921E-001	-7.0906773E+000
2	0	0	1	1.666649957896880E+002	-3.1169989E+000	-3.1111310E+000	-8.078066636140920E+001	-3.4354146E+000	178	4.0233264E+000	2.5131923E-001	-7.1344576E+000
2	0	0	1	1.676656957644082E+002	-3.1370130E+000	-3.1313493E+000	-8.151842563969905E+001	-3.5166733E+000	178	4.0486608E+000	2.5526267E-001	-7.1800098E+000
2	0	0	1	1.686663957391283E+002	-3.1570265E+000	-3.1512759E+000	-8.230567539615572E+001	-3.5987031E+000	178	4.0736508E+000	2.5936788E-001	-7.2249269E+000
2	0	0	1	1.696670957138485E+002	-3.1770408E+000	-3.1710482E+000	-8.388460908611523E+001	-3.6819782E+000	178	4.1246395E+000	2.6600215E-001	-7.2956877E+000
2	0	0	1	1.706678956885662E+002	-3.1970568E+000	-3.1916015E+000	-8.455408664782738E+001	-3.7663124E+000	178	4.1471581E+000	2.6986295E-001	-7.3387594E+000
2	0	0	1	1.716684956632889E+002	-3.2170687E+000	-3.2113428E+000	-8.515901408155150E+001	-3.8512571E+000	178	4.1671801E+000	2.7347478E-001	-7.3785229E+000
2	0	0	1	1.726692956380066E+002	-3.2370851E+000	-3.2315011E+000	-8.573084194245820E+001	-3.9367957E+000	178	4.1876655E+000	2.7703932E-001	-7.4191666E+000
2	0	0	1	1.736698956127293E+002	-3.2570965E+000	-3.2514195E+000	-8.647105988477006E+001	-4.0229774E+000	178	4.2128863E+000	2.8115371E-001	-7.4643059E+000
2	0	0	1	1.746706955874470E+002	-3.2771125E+000	-3.2714570E+000	-8.766005751832390E+001	-4.1101861E+000	178	4.2529988E+000	2.8677610E-001	-7.5244560E+000
2	0	0	1	1.756712955621697E+002	-3.2971253E+000	-3.2914221E+000	-9.396173451890945E+001	-4.2010837E+000	178	4.4504566E+000	3.0926773E-001	-7.7418785E+000
2	0	0	1	1.766720955368874E+002	-3.3171406E+000	-3.3114767E+000	-9.490911033190940E+001	-4.2956700E+000	178	4.4768147E+000	3.1428930E-001	-7.7882915E+000
2	0	0	1	1.776727955116075E+002	-3.3371549E+000	-3.3317761E+000	-9.573811143583225E+001	-4.3911018E+000	178	4.5039644E+000	3.1897795E-001	-7.8357406E+000
2	0	0	1	1.786734954863277E+002	-3.3571692E+000	-3.3515947E+000	-9.641625227899040E+001	-4.4872994E+000	178	4.5278716E+000	3.2314819E-001	-7.8794661E+000
2	0	0	1	1.796741954610479E+002	-3.3771827E+000	-3.3714695E+000	-9.703274952130414E+001	-4.5841308E+000	178	4.5495515E+000	3.2714295E-001	-7.9210210E+000
2	0	0	1	1.806748954357681E+002	-3.3971970E+000	-3.3914990E+000	-9.775836542105685E+001	-4.6816363E+000	178	4.5731330E+000	3.3154741E-001	-7.9646320E+000
2	0	0	1	1.816756954104858E+002	-3.4172130E+000	-3.4118178E+000	-9.842402559886142E+001	-4.7798567E+000	178	4.5952220E+000	3.3580485E-001	-8.0070400E+000
2	0	0	1	1.826762953852085E+002	-3.4372249E+000	-3.4315305E+000	-9.911919704834895E+001	-4.8787298E+000	178	4.6193337E+000	3.4013054E-001	-8.0508642E+000
2	0	0	1	1.836770953599262E+002	-3.4572411E+000	-3.4511957E+000	-9.923435809057810E+001	-4.9780083E+000	178	4.6258101E+000	3.4247720E-001	-8.0770054E+000
2	0	0	1	1.846776953346489E+002	-3.4772530E+000	-3.4719222E+000	-1.002527640757230E+002	-5.0778503E+000	178	4.6598907E+000	3.4806979E-001	-8.1318130E+000
2	0	0	1	1.856784953093666E+002	-3.4972687E+000	-3.4918792E+000	-1.011397349324473E+002	-5.1786790E+000	178	4.6891193E+000	3.5316774E-001	-8.1809988E+000
2	0	0	1	1.866791952840867E+002	-3.5172830E+000	-3.5116231E+000	-1.033468516577072E+002	-5.2811217E+000	178	4.7587128E+000	3.6291519E-001	-8.2703362E+000
2	0	0	1	1.876798952588069E+002	-3.5372970E+000	-3.5317559E+000	-1.039860496796412E+002	-5.3849063E+000	178	4.7808552E+000	3.6725333E-001	-8.3126106E+000
2	0	0	1	1.886805952335271E+002	-3.5573111E+000	-3.5515628E+000	-1.053061537142684E+002	-5.4896507E+000	178	4.8229628E+000	3.7400141E-001	-8.3745251E+000
2	0	0	1	1.896812952082473E+002	-3.5773253E+000	-3.5717816E+000	-1.060658622859669E+002	-5.5954604E+000	178	4.8494968E+000	3.7884411E-001	-8.4212780E+000
2	0	0	1	1.906820951829650E+002	-3.5973411E+000	-3.5915210E+000	-1.065793452485331E+002	-5.7019229E+000	178	4.8670907E+000	3.8278195E-001	-8.4586115E+000
2	0	0	1	1.916826951576877E+002	-3.6173530E+000	-3.6117091E+000	-1.072546483347971E+002	-5.8089571E+000	178	4.8884249E+000	3.8737258E-001	-8.5001335E+000
2	0	0	1	1.926834951324054E+002	-3.6373694E+000	-3.6318791E+000	-1.080423405400165E+002	-5.9167342E+000	178	4.9098668E+000	3.9239672E-001	-8.5417461E+000
2	0	0	1	1.936840951071281E+002	-3.6573808E+000	-3.6518321E+000	-1.106347577958577E+002	-6.0262141E+000	178	4.9892073E+000	4.0401956E-001	-8.6410389E+000
2	0	0	1	1.946848950818458E+002	-3.6773970E+000	-3.6718931E+000	-1.114633913083749E+002	-6.1373830E+000	178	5.0173373E+000	4.0928167E-001	-8.6892300E+000
2	0	0	1	1.956854950565685E+002	-3.6974087E+000	-3.6919436E+000	-1.120341095315446E+002	-6.2492485E+000	178	5.0362372E+000	4.1362363E-001	-8.7281809E+000
2	0	0	1	1.966862950312861E+002	-3.7174246E+000	-3.7120957E+000	-1.124016824935841E+002	-6.3615761E+000	178	5.0497828E+000	4.1724581E-001	-8.7618790E+000
2	0	0	1	1.976869950060063E+002	-3.7374387E+000	-3.7321138E+000	-1.131458827263880E+002	-6.4744511E+000	178	5.0769696E+000	4.2227331E-001	-8.8090839E+000
2	0	0	0	1.982373949921021E+002	-3.7484457E+000	-3.7433393E+000	-1.138201955772311E+002	-6.5368242E+000	178	5.0999370E+000	4.2606762E-001	-8.8432760E+000
2	0	0	1	1.982651949913998E+002	-3.7504473E+000	-3.7449889E+000	-1.139065169190331E+002	-6.5399909E+000	178	5.1030397E+000	4.2657864E-001	-8.8480282E+000