EC-Lab ASCII FILE
Nb header lines : 3                           
mode	ox/red	error	control changes	Ns changes	counter inc.	Ns	I Range	time/s	control/mA	Ewe/V	I/mA	dq/mA.h	(Q-Qo)/mA.h	Energy/W.h	Q charge/discharge/mA.h	half cycle	Ece/V	P/W	Energy charge/W.h	Energy discharge/W.h	Capacitance charge/µF	Capacitance discharge/µF	Q discharge/mA.h	Q charge/mA.h	Capacity/mA.h	Efficiency/%	cycle number	Ewe-Ece/V	R/Ohm	
3	0	0	0	0	0	0	14	0.000000000000000E+000	0.0000000E+000	4.0634608E+000	0.0000000E+000	0.000000000000000E+000	0.000000000000000E+000	0.000000000000000E+000	0.000000000000000E+000	0	-2.2162534E-005	0.0000000E+000	0.000000000000000E+000	0.000000000000000E+000	0.000000000000000E+000	0.000000000000000E+000	0.000000000000000E+000	0.000000000000000E+000	0.000000000000000E+000	0.0000000E+000	0.000000000000000E+000	4.0634828E+000	0.0000000E+000
3	0	0	0	0	0	0	14	9.999999747378752E-001	0.0000000E+000	4.0634227E+000	0.0000000E+000	0.000000000000000E+000	0.000000000000000E+000	0.000000000000000E+000	0.000000000000000E+000	0	-3.0713145E-006	0.0000000E+000	0.000000000000000E+000	0.000000000000000E+000	0.000000000000000E+000	0.000000000000000E+000	0.000000000000000E+000	0.000000000000000E+000	0.000000000000000E+000	0.0000000E+000	0.000000000000000E+000	4.0634255E+000	0.0000000E+000
3	0	0	0	0	0	0	14	1.999999949475750E+000	0.0000000E+000	4.0634418E+000	0.0000000E+000	0.000000000000000E+000	0.000000000000000E+000	0.000000000000000E+000	0.000000000000000E+000	0	-4.1253756E-005	0.0000000E+000	0.000000000000000E+000	0.000000000000000E+000	0.000000000000000E+000	0.000000000000000E+000	0.000000000000000E+000	0.000000000000000E+000	0.000000000000000E+000	0.0000000E+000	0.000000000000000E+000	4.0634832E+000	0.0000000E+000
3	0	0	0	0	0	0	14	2.999999924213625E+000	0.0000000E+000	4.0634990E+000	0.0000000E+000	0.000000000000000E+000	0.000000000000000E+000	0.000000000000000E+000	0.000000000000000E+000	0	5.4202344E-005	0.0000000E+000	0.000000000000000E+000	0.000000000000000E+000	0.000000000000000E+000	0.000000000000000E+000	0.000000000000000E+000	0.000000000000000E+000	0.000000000000000E+000	0.0000000E+000	0.000000000000000E+000	4.0634446E+000	0.0000000E+000
3	0	0	0	0	0	0	14	3.999999898951501E+000	0.0000000E+000	4.0634418E+000	0.0000000E+000	0.000000000000000E+000	0.000000000000000E+000	0.000000000000000E+000	0.000000000000000E+000	0	-1.1761863E-004	0.0000000E+000	0.000000000000000E+000	0.000000000000000E+000	0.000000000000000E+000	0.000000000000000E+000	0.000000000000000E+000	0.000000000000000E+000	0.000000000000000E+000	0.0000000E+000	0.000000000000000E+000	4.0635595E+000	0.0000000E+000
3	0	0	0	0	0	0	14	4.999999873689376E+000	0.0000000E+000	4.0634227E+000	0.0000000E+000	0.000000000000000E+000	0.000000000000000E+000	0.000000000000000E+000	0.000000000000000E+000	0	-3.0713145E-006	0.0000000E+000	0.000000000000000E+000	0.000000000000000E+000	0.000000000000000E+000	0.000000000000000E+000	0.000000000000000E+000	0.000000000000000E+000	0.000000000000000E+000	0.0000000E+000	0.000000000000000E+000	4.0634255E+000	0.0000000E+000
3	0	0	0	0	0	0	14	5.999999848427251E+000	0.0000000E+000	4.0634799E+000	0.0000000E+000	0.000000000000000E+000	0.000000000000000E+000	0.000000000000000E+000	0.000000000000000E+000	0	1.6019905E-005	0.0000000E+000	0.000000000000000E+000	0.000000000000000E+000	0.000000000000000E+000	0.000000000000000E+000	0.000000000000000E+000	0.000000000000000E+000	0.000000000000000E+000	0.0000000E+000	0.000000000000000E+000	4.0634637E+000	0.0000000E+000
3	0	0	0	0	0	0	14	6.999999823165126E+000	0.0000000E+000	4.0634418E+000	0.0000000E+000	0.000000000000000E+000	0.000000000000000E+000	0.000000000000000E+000	0.000000000000000E+000	0	3.5111123E-005	0.0000000E+000	0.000000000000000E+000	0.000000000000000E+000	0.000000000000000E+000	0.000000000000000E+000	0.000000000000000E+000	0.000000000000000E+000	0.000000000000000E+000	0.0000000E+000	0.000000000000000E+000	4.0634065E+000	0.0000000E+000
3	0	0	0	0	0	0	14	7.999999797903001E+000	0.0000000E+000	4.0632505E+000	0.0000000E+000	0.000000000000000E+000	0.000000000000000E+000	0.000000000000000E+000	0.000000000000000E+000	0	1.6874966E-004	0.0000000E+000	0.000000000000000E+000	0.000000000000000E+000	0.000000000000000E+000	0.000000000000000E+000	0.000000000000000E+000	0.000000000000000E+000	0.000000000000000E+000	0.0000000E+000	0.000000000000000E+000	4.0630817E+000	0.0000000E+000
3	0	0	0	0	0	0	14	8.999999772640876E+000	0.0000000E+000	4.0634799E+000	0.0000000E+000	0.000000000000000E+000	0.000000000000000E+000	0.000000000000000E+000	0.000000000000000E+000	0	7.3293559E-005	0.0000000E+000	0.000000000000000E+000	0.000000000000000E+000	0.000000000000000E+000	0.000000000000000E+000	0.000000000000000E+000	0.000000000000000E+000	0.000000000000000E+000	0.0000000E+000	0.000000000000000E+000	4.0634065E+000	0.0000000E+000
3	0	0	1	0	0	0	10	9.999799747383804E+000	5.0000999E+001	4.0634036E+000	0.0000000E+000	0.000000000000000E+000	0.000000000000000E+000	0.000000000000000E+000	0.000000000000000E+000	0	7.3293559E-005	0.0000000E+000	0.000000000000000E+000	0.000000000000000E+000	0.000000000000000E+000	0.000000000000000E+000	0.000000000000000E+000	0.000000000000000E+000	0.000000000000000E+000	0.0000000E+000	0.000000000000000E+000	4.0633302E+000	0.0000000E+000
1	1	0	1	1	0	1	10	9.999999747378752E+000	5.0000999E+001	4.2584472E+000	4.9353893E+001	2.741882960001628E-006	2.741882960001628E-006	1.167616373219638E-008	2.741882960001628E-006	0	1.5590927E-001	2.1017095E-001	1.167616373219638E-008	0.000000000000000E+000	0.000000000000000E+000	0.000000000000000E+000	0.000000000000000E+000	2.741882960001628E-006	2.741882960001628E-006	0.0000000E+000	0.000000000000000E+000	4.1025381E+000	8.6283913E+001
1	1	0	1	0	0	1	10	1.050299973467190E+001	5.0000999E+001	4.4302082E+000	5.0010445E+001	6.987529464085897E-003	6.990271347045898E-003	3.096788653642742E-005	6.990271347045898E-003	0	1.6273047E-001	2.2155668E-001	3.096788653642742E-005	0.000000000000000E+000	1.465115572614787E+005	0.000000000000000E+000	0.000000000000000E+000	6.990271347045898E-003	6.990271347045898E-003	0.0000000E+000	0.000000000000000E+000	4.2674775E+000	8.8585663E+001
1	1	0	1	0	0	1	10	1.100599972196505E+001	5.0000999E+001	4.4370241E+000	5.0004078E+001	6.987491548114353E-003	1.397776289516025E-002	6.197155504936332E-005	1.397776289516025E-002	0	1.6269229E-001	2.2186930E-001	6.197155504936332E-005	0.000000000000000E+000	2.817829931402419E+005	0.000000000000000E+000	0.000000000000000E+000	1.397776289516025E-002	1.397776289516025E-002	0.0000000E+000	0.000000000000000E+000	4.2743320E+000	8.8733246E+001
1	1	0	1	0	0	1	10	1.150899970925821E+001	5.0000999E+001	4.4401550E+000	5.0009167E+001	6.987463194317288E-003	2.096522608947754E-002	9.299697489363803E-005	2.096522608947754E-002	0	1.6261593E-001	2.2204845E-001	9.299697489363803E-005	0.000000000000000E+000	4.153635088826433E+005	0.000000000000000E+000	0.000000000000000E+000	2.096522608947754E-002	2.096522608947754E-002	0.0000000E+000	0.000000000000000E+000	4.2775393E+000	8.8786819E+001
1	1	0	1	0	0	1	10	1.201199969655136E+001	5.0000999E+001	4.4427519E+000	5.0014896E+001	6.987429082234701E-003	2.795265517171224E-002	1.240403886162700E-004	2.795265517171224E-002	0	1.6255866E-001	2.2220378E-001	1.240403886162700E-004	0.000000000000000E+000	5.459955761489206E+005	0.000000000000000E+000	0.000000000000000E+000	2.795265517171224E-002	2.795265517171224E-002	0.0000000E+000	0.000000000000000E+000	4.2801933E+000	8.8828575E+001
1	1	0	1	0	0	1	10	1.251499968384451E+001	5.0000999E+001	4.4448519E+000	5.0006630E+001	6.987380467096965E-003	3.494003563880920E-002	1.550982597889167E-004	3.494003563880921E-002	0	1.6257775E-001	2.2227207E-001	1.550982597889167E-004	0.000000000000000E+000	6.747905224151296E+005	0.000000000000000E+000	0.000000000000000E+000	3.494003563880921E-002	3.494003563880921E-002	0.0000000E+000	0.000000000000000E+000	4.2822742E+000	8.8885254E+001
1	1	0	1	0	0	1	10	1.301799967113766E+001	5.0000999E+001	4.4468565E+000	5.0013626E+001	6.987335671318902E-003	4.192737131012811E-002	1.861699388276471E-004	4.192737131012811E-002	0	1.6261593E-001	2.2240342E-001	1.861699388276471E-004	0.000000000000000E+000	8.011202945715638E+005	0.000000000000000E+000	0.000000000000000E+000	4.192737131012811E-002	4.192737131012811E-002	0.0000000E+000	0.000000000000000E+000	4.2842407E+000	8.8912903E+001
1	1	0	1	0	0	1	10	1.352099965843081E+001	5.0000999E+001	4.4485178E+000	5.0004719E+001	6.987316859987047E-003	4.891468817011516E-002	2.172531422491895E-004	4.891468817011516E-002	0	1.6263503E-001	2.2244689E-001	2.172531422491895E-004	0.000000000000000E+000	9.264602228540895E+005	0.000000000000000E+000	0.000000000000000E+000	4.891468817011516E-002	4.891468817011516E-002	0.0000000E+000	0.000000000000000E+000	4.2858829E+000	8.8961960E+001
1	1	0	1	0	0	1	10	1.402399964572396E+001	5.0000999E+001	4.4501595E+000	5.0008537E+001	6.987369590547350E-003	5.590205776066250E-002	2.483480517599390E-004	5.590205776066250E-002	0	1.6257775E-001	2.2254597E-001	2.483480517599390E-004	0.000000000000000E+000	1.049736112555155E+006	0.000000000000000E+000	0.000000000000000E+000	5.590205776066250E-002	5.590205776066250E-002	0.0000000E+000	0.000000000000000E+000	4.2875819E+000	8.8987999E+001
1	1	0	1	0	0	1	10	1.452699963301711E+001	5.0000999E+001	4.4518018E+000	5.0007263E+001	6.987274855295817E-003	6.288933261595832E-002	2.794540143763357E-004	6.288933261595832E-002	0	1.6257775E-001	2.2262242E-001	2.794540143763357E-004	0.000000000000000E+000	1.170913904588477E+006	0.000000000000000E+000	0.000000000000000E+000	6.288933261595832E-002	6.288933261595832E-002	0.0000000E+000	0.000000000000000E+000	4.2892241E+000	8.9023102E+001
1	1	0	1	0	0	1	10	1.502999962031026E+001	5.0000999E+001	4.4534054E+000	5.0005356E+001	6.987240299648709E-003	6.987657291560703E-002	3.105710279198840E-004	6.987657291560703E-002	0	1.6261593E-001	2.2269411E-001	3.105710279198840E-004	0.000000000000000E+000	1.290305560905647E+006	0.000000000000000E+000	0.000000000000000E+000	6.987657291560703E-002	6.987657291560703E-002	0.0000000E+000	0.000000000000000E+000	4.2907896E+000	8.9058571E+001
1	1	0	1	0	0	1	10	1.553299960760341E+001	5.0000999E+001	4.4549327E+000	4.9998989E+001	6.987224287668864E-003	7.686379720327589E-002	3.416986418090535E-004	7.686379720327589E-002	0	1.6255866E-001	2.2274213E-001	3.416986418090535E-004	0.000000000000000E+000	1.408295485406980E+006	0.000000000000000E+000	0.000000000000000E+000	7.686379720327589E-002	7.686379720327589E-002	0.0000000E+000	0.000000000000000E+000	4.2923741E+000	8.9100456E+001
1	1	0	1	0	0	1	10	1.603599959489657E+001	5.0000999E+001	4.4560976E+000	5.0000904E+001	6.987212027231853E-003	8.385100923050774E-002	3.728343405741658E-004	8.385100923050774E-002	0	1.6257775E-001	2.2280891E-001	3.728343405741658E-004	0.000000000000000E+000	1.527260169782124E+006	0.000000000000000E+000	0.000000000000000E+000	8.385100923050774E-002	8.385100923050774E-002	0.0000000E+000	0.000000000000000E+000	4.2935200E+000	8.9120338E+001
1	1	0	1	0	0	1	10	1.653899958218972E+001	5.0000999E+001	4.4576249E+000	5.0004078E+001	6.987185759438409E-003	9.083819498994615E-002	4.039805938820405E-004	9.083819498994615E-002	0	1.6244411E-001	2.2289942E-001	4.039805938820405E-004	0.000000000000000E+000	1.641837580208089E+006	0.000000000000000E+000	0.000000000000000E+000	9.083819498994615E-002	9.083819498994615E-002	0.0000000E+000	0.000000000000000E+000	4.2951808E+000	8.9145226E+001
1	1	0	1	0	0	1	10	1.704199956948287E+001	5.0000999E+001	4.4587703E+000	5.0004719E+001	6.987213217841255E-003	9.782540820778740E-002	4.351349724836484E-004	9.782540820778740E-002	0	1.6253957E-001	2.2295955E-001	4.351349724836484E-004	0.000000000000000E+000	1.758017228202272E+006	0.000000000000000E+000	0.000000000000000E+000	9.782540820778740E-002	9.782540820778740E-002	0.0000000E+000	0.000000000000000E+000	4.2962308E+000	8.9166992E+001
1	1	0	1	0	0	1	10	1.754499955677602E+001	5.0000999E+001	4.4599543E+000	5.0017441E+001	6.987176076253255E-003	1.048125842840407E-001	4.662974582027399E-004	1.048125842840407E-001	0	1.6236775E-001	2.2307549E-001	4.662974582027399E-004	0.000000000000000E+000	1.872516250282661E+006	0.000000000000000E+000	0.000000000000000E+000	1.048125842840407E-001	1.048125842840407E-001	0.0000000E+000	0.000000000000000E+000	4.2975864E+000	8.9167984E+001
1	1	0	1	0	0	1	10	1.804799954406917E+001	5.0000999E+001	4.4611568E+000	5.0005993E+001	6.987132691701254E-003	1.117997169757419E-001	4.974681530378945E-004	1.117997169757419E-001	0	1.6242501E-001	2.2308458E-001	4.974681530378945E-004	0.000000000000000E+000	1.985494680704660E+006	0.000000000000000E+000	0.000000000000000E+000	1.117997169757419E-001	1.117997169757419E-001	0.0000000E+000	0.000000000000000E+000	4.2987318E+000	8.9212440E+001
1	1	0	1	0	0	1	10	1.855099953136232E+001	5.0000999E+001	4.4622831E+000	5.0002811E+001	6.987110854042901E-003	1.187868278297848E-001	5.286466199604956E-004	1.187868278297848E-001	0	1.6240592E-001	2.2312671E-001	5.286466199604956E-004	0.000000000000000E+000	2.097925073524300E+006	0.000000000000000E+000	0.000000000000000E+000	1.187868278297848E-001	1.187868278297848E-001	0.0000000E+000	0.000000000000000E+000	4.2998772E+000	8.9240646E+001
1	1	0	1	0	0	1	10	1.905399951865547E+001	5.0000999E+001	4.4634480E+000	5.0015533E+001	6.987071589999729E-003	1.257738994197845E-001	5.598330510075864E-004	1.257738994197845E-001	0	1.6234866E-001	2.2324173E-001	5.598330510075864E-004	0.000000000000000E+000	2.208702927017710E+006	0.000000000000000E+000	0.000000000000000E+000	1.257738994197845E-001	1.257738994197845E-001	0.0000000E+000	0.000000000000000E+000	4.3010993E+000	8.9241234E+001
1	1	0	1	0	0	1	10	1.955699950594862E+001	5.0000999E+001	4.4644408E+000	5.0009808E+001	6.987028599845038E-003	1.327609280196296E-001	5.910262267174175E-004	1.327609280196296E-001	0	1.6234866E-001	2.2326583E-001	5.910262267174175E-004	0.000000000000000E+000	2.320165380985185E+006	0.000000000000000E+000	0.000000000000000E+000	1.327609280196296E-001	1.327609280196296E-001	0.0000000E+000	0.000000000000000E+000	4.3020921E+000	8.9271309E+001
1	1	0	1	0	0	1	10	2.000179949471203E+001	5.0000999E+001	4.4653955E+000	4.9998989E+001	6.178562793095907E-003	1.389394908127255E-001	6.186159529049053E-004	1.389394908127255E-001	0	1.6236775E-001	2.2326526E-001	6.186159529049053E-004	0.000000000000000E+000	2.416942852182248E+006	0.000000000000000E+000	0.000000000000000E+000	1.389394908127255E-001	1.389394908127255E-001	0.0000000E+000	0.000000000000000E+000	4.3030276E+000	8.9309715E+001
3	1	0	0	1	0	2	10	2.005019949348934E+001	0.0000000E+000	4.1902847E+000	0.0000000E+000	0.000000000000000E+000	1.389450469625261E-001	6.186159529049053E-004	1.389394908127255E-001	0	-3.0713145E-006	0.0000000E+000	6.186159529049053E-004	0.000000000000000E+000	2.416942852182248E+006	0.000000000000000E+000	0.000000000000000E+000	1.389394908127255E-001	1.389394908127255E-001	0.0000000E+000	0.000000000000000E+000	4.1902876E+000	0.0000000E+000
3	1	0	0	0	0	2	14	2.105519946810091E+001	0.0000000E+000	4.1040130E+000	0.0000000E+000	0.000000000000000E+000	1.389450469625261E-001	6.186159529049053E-004	1.389394908127255E-001	0	-4.1253756E-005	0.0000000E+000	6.186159529049053E-004	0.000000000000000E+000	2.416942852182248E+006	0.000000000000000E+000	0.000000000000000E+000	1.389394908127255E-001	1.389394908127255E-001	0.0000000E+000	0.000000000000000E+000	4.1040545E+000	0.0000000E+000
3	1	0	0	0	0	2	14	2.206019944271247E+001	0.0000000E+000	4.0992017E+000	0.0000000E+000	0.000000000000000E+000	1.389450469625261E-001	6.186159529049053E-004	1.389394908127255E-001	0	-2.2162534E-005	0.0000000E+000	6.186159529049053E-004	0.000000000000000E+000	2.416942852182248E+006	0.000000000000000E+000	0.000000000000000E+000	1.389394908127255E-001	1.389394908127255E-001	0.0000000E+000	0.000000000000000E+000	4.0992236E+000	0.0000000E+000
3	1	0	0	0	0	2	14	2.306519941732404E+001	0.0000000E+000	4.0967007E+000	0.0000000E+000	0.000000000000000E+000	1.389450469625261E-001	6.186159529049053E-004	1.389394908127255E-001	0	1.1147600E-004	0.0000000E+000	6.186159529049053E-004	0.000000000000000E+000	2.416942852182248E+006	0.000000000000000E+000	0.000000000000000E+000	1.389394908127255E-001	1.389394908127255E-001	0.0000000E+000	0.000000000000000E+000	4.0965891E+000	0.0000000E+000
3	1	0	0	0	0	2	14	2.407019939193560E+001	0.0000000E+000	4.0949821E+000	0.0000000E+000	0.000000000000000E+000	1.389450469625261E-001	6.186159529049053E-004	1.389394908127255E-001	0	-6.0344973E-005	0.0000000E+000	6.186159529049053E-004	0.000000000000000E+000	2.416942852182248E+006	0.000000000000000E+000	0.000000000000000E+000	1.389394908127255E-001	1.389394908127255E-001	0.0000000E+000	0.000000000000000E+000	4.0950427E+000	0.0000000E+000
3	1	0	0	0	0	2	14	2.507519936654717E+001	0.0000000E+000	4.0933976E+000	0.0000000E+000	0.000000000000000E+000	1.389450469625261E-001	6.186159529049053E-004	1.389394908127255E-001	0	1.6019905E-005	0.0000000E+000	6.186159529049053E-004	0.000000000000000E+000	2.416942852182248E+006	0.000000000000000E+000	0.000000000000000E+000	1.389394908127255E-001	1.389394908127255E-001	0.0000000E+000	0.000000000000000E+000	4.0933814E+000	0.0000000E+000
3	1	0	0	0	0	2	14	2.608019934115873E+001	0.0000000E+000	4.0922523E+000	0.0000000E+000	0.000000000000000E+000	1.389450469625261E-001	6.186159529049053E-004	1.389394908127255E-001	0	-4.1253756E-005	0.0000000E+000	6.186159529049053E-004	0.000000000000000E+000	2.416942852182248E+006	0.000000000000000E+000	0.000000000000000E+000	1.389394908127255E-001	1.389394908127255E-001	0.0000000E+000	0.000000000000000E+000	4.0922937E+000	0.0000000E+000
3	1	0	0	0	0	2	14	2.708519931577030E+001	0.0000000E+000	4.0911255E+000	0.0000000E+000	0.000000000000000E+000	1.389450469625261E-001	6.186159529049053E-004	1.389394908127255E-001	0	1.6019905E-005	0.0000000E+000	6.186159529049053E-004	0.000000000000000E+000	2.416942852182248E+006	0.000000000000000E+000	0.000000000000000E+000	1.389394908127255E-001	1.389394908127255E-001	0.0000000E+000	0.000000000000000E+000	4.0911093E+000	0.0000000E+000
3	1	0	0	0	0	2	14	2.809019929038186E+001	0.0000000E+000	4.0900183E+000	0.0000000E+000	0.000000000000000E+000	1.389450469625261E-001	6.186159529049053E-004	1.389394908127255E-001	0	3.5111123E-005	0.0000000E+000	6.186159529049053E-004	0.000000000000000E+000	2.416942852182248E+006	0.000000000000000E+000	0.000000000000000E+000	1.389394908127255E-001	1.389394908127255E-001	0.0000000E+000	0.000000000000000E+000	4.0899830E+000	0.0000000E+000
3	1	0	0	0	0	2	14	2.909519926499343E+001	0.0000000E+000	4.0894647E+000	0.0000000E+000	0.000000000000000E+000	1.389450469625261E-001	6.186159529049053E-004	1.389394908127255E-001	0	-2.2162534E-005	0.0000000E+000	6.186159529049053E-004	0.000000000000000E+000	2.416942852182248E+006	0.000000000000000E+000	0.000000000000000E+000	1.389394908127255E-001	1.389394908127255E-001	0.0000000E+000	0.000000000000000E+000	4.0894866E+000	0.0000000E+000
3	1	0	1	0	0	2	10	3.000599924198468E+001	-5.0006001E+001	4.0886054E+000	0.0000000E+000	0.000000000000000E+000	1.389450469625261E-001	6.186159529049053E-004	1.389394908127255E-001	0	1.4965843E-004	0.0000000E+000	6.186159529049053E-004	0.000000000000000E+000	2.416942852182248E+006	0.000000000000000E+000	0.000000000000000E+000	1.389394908127255E-001	1.389394908127255E-001	0.0000000E+000	0.000000000000000E+000	4.0884557E+000	0.0000000E+000
1	0	0	1	1	0	3	10	3.000619924197963E+001	-5.0006001E+001	3.8976662E+000	-4.9306820E+001	-2.739267773098416E-006	1.389423076947530E-001	6.186052761534498E-004	-2.739267773098416E-006	1	-1.5473154E-001	-1.9218153E-001	6.186159529049053E-004	-1.067675145550003E-008	2.416942852182248E+006	0.000000000000000E+000	2.739267773098416E-006	0.000000000000000E+000	2.739267773098416E-006	0.0000000E+000	0.000000000000000E+000	4.0523977E+000	7.9049232E+001
1	0	0	1	0	0	3	10	3.051419922914647E+001	-5.0006001E+001	3.7107844E+000	-4.9993904E+001	-7.054964597278171E-003	1.318873430974749E-001	5.924258233344735E-004	-7.057703865051270E-003	1	-1.6061752E-001	-1.8551660E-001	6.186159529049053E-004	-2.619012957043186E-005	2.416942852182248E+006	1.359561848634732E+005	7.057703865051270E-003	0.000000000000000E+000	7.057703865051270E-003	0.0000000E+000	0.000000000000000E+000	3.8714020E+000	7.4224739E+001
1	0	0	1	0	0	3	10	3.102219921631331E+001	-5.0006001E+001	3.6990426E+000	-4.9995182E+001	-7.055043476528591E-003	1.248322996209462E-001	5.663289172615268E-004	-1.411274734157986E-002	1	-1.6075115E-001	-1.8493430E-001	6.186159529049053E-004	-5.228703564337858E-005	2.416942852182248E+006	2.557897238380579E+005	1.411274734157986E-002	0.000000000000000E+000	1.411274734157986E-002	0.0000000E+000	0.000000000000000E+000	3.8597937E+000	7.3987984E+001
1	0	0	1	0	0	3	10	3.153019920348015E+001	-5.0006001E+001	3.6940784E+000	-4.9992638E+001	-7.055098371717665E-003	1.177772012492286E-001	5.402668304361440E-004	-2.116784571329752E-002	1	-1.6061752E-001	-1.8467672E-001	6.186159529049053E-004	-7.834912246876135E-005	2.416942852182248E+006	3.743065921638020E+005	2.116784571329752E-002	0.000000000000000E+000	2.116784571329752E-002	0.0000000E+000	0.000000000000000E+000	3.8546960E+000	7.3892448E+001
1	0	0	1	0	0	3	10	3.203819919064699E+001	-5.0006001E+001	3.6900690E+000	-4.9991997E+001	-7.055116400612725E-003	1.107220848486159E-001	5.142329643957168E-004	-2.822296211391025E-002	1	-1.6059841E-001	-1.8447392E-001	6.186159529049053E-004	-1.043829885091885E-004	2.416942852182248E+006	4.894219977241979E+005	2.822296211391025E-002	0.000000000000000E+000	2.822296211391025E-002	0.0000000E+000	0.000000000000000E+000	3.8506675E+000	7.3813194E+001
1	0	0	1	0	0	3	10	3.254619917781383E+001	-5.0006001E+001	3.6866896E+000	-4.9991997E+001	-7.055173557069566E-003	1.036669112915463E-001	4.882227293090846E-004	-3.527813567097982E-002	1	-1.6059841E-001	-1.8430498E-001	6.186159529049053E-004	-1.303932235958207E-004	2.416942852182248E+006	6.019685975888801E+005	3.527813567097982E-002	0.000000000000000E+000	3.527813567097982E-002	0.0000000E+000	0.000000000000000E+000	3.8472881E+000	7.3745598E+001
1	0	0	1	0	0	3	10	3.305419916498067E+001	-5.0006001E+001	3.6835966E+000	-5.0001537E+001	-7.055241997612848E-003	9.661166929393344E-002	4.622340637967311E-004	-4.233337766859267E-002	1	-1.6061752E-001	-1.8418549E-001	6.186159529049053E-004	-1.563818891081741E-004	2.416942852182248E+006	7.119187224028342E+005	4.233337766859267E-002	0.000000000000000E+000	4.233337766859267E-002	0.0000000E+000	0.000000000000000E+000	3.8442142E+000	7.3669670E+001
1	0	0	1	0	0	3	10	3.356219915214751E+001	-5.0006001E+001	3.6809428E+000	-4.9996456E+001	-7.055270469665528E-003	8.955639882426791E-002	4.362640169440774E-004	-4.938864813825819E-002	1	-1.6052206E-001	-1.8403409E-001	6.186159529049053E-004	-1.823519359608278E-004	2.416942852182248E+006	8.203964074824753E+005	4.938864813825819E-002	0.000000000000000E+000	4.938864813825819E-002	0.0000000E+000	0.000000000000000E+000	3.8414648E+000	7.3624077E+001
1	0	0	1	0	0	3	10	3.407019913931435E+001	-5.0006001E+001	3.6783845E+000	-4.9991997E+001	-7.055267161475288E-003	8.250113166279263E-002	4.103120312743444E-004	-5.644391529973348E-002	1	-1.6035023E-001	-1.8388979E-001	6.186159529049053E-004	-2.083039216305609E-004	2.416942852182248E+006	9.266533399682952E+005	5.644391529973348E-002	0.000000000000000E+000	5.644391529973348E-002	0.0000000E+000	0.000000000000000E+000	3.8387349E+000	7.3579468E+001
1	0	0	1	0	0	3	10	3.457819912648120E+001	-5.0006001E+001	3.6758451E+000	-5.0001537E+001	-7.055304368336996E-003	7.544582729445563E-002	3.843778249571759E-004	-6.349921966807047E-002	1	-1.6050296E-001	-1.8379791E-001	6.186159529049053E-004	-2.342381279477294E-004	2.416942852182248E+006	1.030547689163518E+006	6.349921966807047E-002	0.000000000000000E+000	6.349921966807047E-002	0.0000000E+000	0.000000000000000E+000	3.8363481E+000	7.3514641E+001
1	0	0	1	0	0	3	10	3.508619911364804E+001	-5.0006001E+001	3.6734967E+000	-4.9998363E+001	-7.055343480851915E-003	6.839048381360371E-002	3.584600437993920E-004	-7.055456314892239E-002	1	-1.6027386E-001	-1.8366882E-001	6.186159529049053E-004	-2.601559091055133E-004	2.416942852182248E+006	1.133055279968944E+006	7.055456314892239E-002	0.000000000000000E+000	7.055456314892239E-002	0.0000000E+000	0.000000000000000E+000	3.8337705E+000	7.3472336E+001
1	0	0	1	0	0	3	10	3.559419910081488E+001	-5.0006001E+001	3.6713202E+000	-5.0000900E+001	-7.055342903137207E-003	6.133514091046651E-002	3.325576208814145E-004	-7.760990605205960E-002	1	-1.6042660E-001	-1.8356931E-001	6.186159529049053E-004	-2.860583320234908E-004	2.416942852182248E+006	1.234374109211641E+006	7.760990605205960E-002	0.000000000000000E+000	7.760990605205960E-002	0.0000000E+000	0.000000000000000E+000	3.8317468E+000	7.3425079E+001
1	0	0	1	0	0	3	10	3.610219908798172E+001	-5.0006001E+001	3.6691055E+000	-4.9995819E+001	-7.055373271730211E-003	5.427976763873630E-002	3.066707117954108E-004	-8.466527932378981E-002	1	-1.6033114E-001	-1.8343994E-001	6.186159529049053E-004	-3.119452411094945E-004	2.416942852182248E+006	1.333540823451238E+006	8.466527932378981E-002	0.000000000000000E+000	8.466527932378981E-002	0.0000000E+000	0.000000000000000E+000	3.8294368E+000	7.3388245E+001
1	0	0	1	0	0	3	10	3.661019907514856E+001	-5.0006001E+001	3.6668718E+000	-4.9997726E+001	-7.055362016254002E-003	4.722440562248230E-002	2.807996038771635E-004	-9.172064134004382E-002	1	-1.6025478E-001	-1.8333526E-001	6.186159529049053E-004	-3.378163490277418E-004	2.416942852182248E+006	1.430685780156236E+006	9.172064134004382E-002	0.000000000000000E+000	9.172064134004382E-002	0.0000000E+000	0.000000000000000E+000	3.8271265E+000	7.3340767E+001
1	0	0	1	0	0	3	10	3.711819906231540E+001	-5.0006001E+001	3.6648669E+000	-4.9996456E+001	-7.055439989937676E-003	4.016896563254462E-002	2.549423552217570E-004	-9.877608132998149E-002	1	-1.6025478E-001	-1.8323036E-001	6.186159529049053E-004	-3.636735976831483E-004	2.416942852182248E+006	1.527469823158011E+006	9.877608132998149E-002	0.000000000000000E+000	9.877608132998149E-002	0.0000000E+000	0.000000000000000E+000	3.8251216E+000	7.3302536E+001
1	0	0	1	0	0	3	10	3.762619904948224E+001	-5.0006001E+001	3.6627476E+000	-4.9996456E+001	-7.055392512851292E-003	3.311357311969333E-002	2.291002330763062E-004	-1.058314738428328E-001	1	-1.6027386E-001	-1.8312441E-001	6.186159529049053E-004	-3.895157198285991E-004	2.416942852182248E+006	1.621809916203467E+006	1.058314738428328E-001	0.000000000000000E+000	1.058314738428328E-001	0.0000000E+000	0.000000000000000E+000	3.8230214E+000	7.3260147E+001
1	0	0	1	0	0	3	10	3.813419903664908E+001	-5.0006001E+001	3.6608958E+000	-4.9992638E+001	-7.055384772830540E-003	2.605818834686279E-002	2.032712044216871E-004	-1.128868586156633E-001	1	-1.6014023E-001	-1.8301784E-001	6.186159529049053E-004	-4.153447484832181E-004	2.416942852182248E+006	1.716399962441156E+006	1.128868586156633E-001	0.000000000000000E+000	1.128868586156633E-001	0.0000000E+000	0.000000000000000E+000	3.8210361E+000	7.3228699E+001
1	0	0	1	0	0	3	10	3.864219902381592E+001	-5.0006001E+001	3.6587002E+000	-5.0000900E+001	-7.055419008255005E-003	1.900276933860779E-002	1.774575412894016E-004	-1.199422776239183E-001	1	-1.6023569E-001	-1.8293831E-001	6.186159529049053E-004	-4.411584116155037E-004	2.416942852182248E+006	1.806919063136638E+006	1.199422776239183E-001	0.000000000000000E+000	1.199422776239183E-001	0.0000000E+000	0.000000000000000E+000	3.8189359E+000	7.3172684E+001
1	0	0	1	0	0	3	10	3.915019901098276E+001	-5.0006001E+001	3.6568482E+000	-5.0004089E+001	-7.055417193942599E-003	1.194735214466519E-002	1.516569516784102E-004	-1.269976948178609E-001	1	-1.6012114E-001	-1.8285736E-001	6.186159529049053E-004	-4.669590012264950E-004	2.416942852182248E+006	1.898494532737727E+006	1.269976948178609E-001	0.000000000000000E+000	1.269976948178609E-001	0.0000000E+000	0.000000000000000E+000	3.8169694E+000	7.3130981E+001
1	0	0	1	0	0	3	10	3.965819899814960E+001	-5.0006001E+001	3.6549199E+000	-4.9992638E+001	-7.055447030385335E-003	4.891905114279853E-003	1.258698581864941E-004	-1.340531418482462E-001	1	-1.6015932E-001	-1.8271908E-001	6.186159529049053E-004	-4.927460947184110E-004	2.416942852182248E+006	1.988047624166136E+006	1.340531418482462E-001	0.000000000000000E+000	1.340531418482462E-001	0.0000000E+000	0.000000000000000E+000	3.8150792E+000	7.3109161E+001
1	0	0	1	0	0	3	10	4.001299898918660E+001	-5.0006001E+001	3.6536980E+000	-4.9991997E+001	-4.927723675409953E-003	-3.581856113009983E-005	1.078654442091028E-004	-1.389808655236562E-001	1	-1.6010204E-001	-1.8265566E-001	6.186159529049053E-004	-5.107505086958024E-004	2.416942852182248E+006	2.050804230605789E+006	1.389808655236562E-001	0.000000000000000E+000	1.389808655236562E-001	0.0000000E+000	0.000000000000000E+000	3.8138001E+000	7.3085655E+001
3	0	0	0	1	0	4	10	4.006139898796391E+001	0.0000000E+000	3.9317477E+000	0.0000000E+000	0.000000000000000E+000	-4.137312189737956E-005	1.078654442091028E-004	-1.389808655236562E-001	1	3.5111123E-005	0.0000000E+000	6.186159529049053E-004	-5.107505086958024E-004	2.416942852182248E+006	2.050804230605789E+006	1.389808655236562E-001	0.000000000000000E+000	1.389808655236562E-001	0.0000000E+000	0.000000000000000E+000	3.9317126E+000	0.0000000E+000
3	0	0	0	0	0	4	14	4.107139896244917E+001	0.0000000E+000	4.0374951E+000	0.0000000E+000	0.000000000000000E+000	-4.137312189737956E-005	1.078654442091028E-004	-1.389808655236562E-001	1	-9.8527416E-005	0.0000000E+000	6.186159529049053E-004	-5.107505086958024E-004	2.416942852182248E+006	2.050804230605789E+006	1.389808655236562E-001	0.000000000000000E+000	1.389808655236562E-001	0.0000000E+000	0.000000000000000E+000	4.0375938E+000	0.0000000E+000
3	0	0	0	0	0	4	14	4.208139893693442E+001	0.0000000E+000	4.0441966E+000	0.0000000E+000	0.000000000000000E+000	-4.137312189737956E-005	1.078654442091028E-004	-1.389808655236562E-001	1	-1.1761863E-004	0.0000000E+000	6.186159529049053E-004	-5.107505086958024E-004	2.416942852182248E+006	2.050804230605789E+006	1.389808655236562E-001	0.000000000000000E+000	1.389808655236562E-001	0.0000000E+000	0.000000000000000E+000	4.0443144E+000	0.0000000E+000
3	0	0	0	0	0	4	14	4.309139891141967E+001	0.0000000E+000	4.0471940E+000	0.0000000E+000	0.000000000000000E+000	-4.137312189737956E-005	1.078654442091028E-004	-1.389808655236562E-001	1	1.6019905E-005	0.0000000E+000	6.186159529049053E-004	-5.107505086958024E-004	2.416942852182248E+006	2.050804230605789E+006	1.389808655236562E-001	0.000000000000000E+000	1.389808655236562E-001	0.0000000E+000	0.000000000000000E+000	4.0471778E+000	0.0000000E+000
3	0	0	0	0	0	4	14	4.410139888590493E+001	0.0000000E+000	4.0491986E+000	0.0000000E+000	0.000000000000000E+000	-4.137312189737956E-005	1.078654442091028E-004	-1.389808655236562E-001	1	-6.0344973E-005	0.0000000E+000	6.186159529049053E-004	-5.107505086958024E-004	2.416942852182248E+006	2.050804230605789E+006	1.389808655236562E-001	0.000000000000000E+000	1.389808655236562E-001	0.0000000E+000	0.000000000000000E+000	4.0492592E+000	0.0000000E+000
3	0	0	0	0	0	4	14	4.511139886039018E+001	0.0000000E+000	4.0507641E+000	0.0000000E+000	0.000000000000000E+000	-4.137312189737956E-005	1.078654442091028E-004	-1.389808655236562E-001	1	9.2384784E-005	0.0000000E+000	6.186159529049053E-004	-5.107505086958024E-004	2.416942852182248E+006	2.050804230605789E+006	1.389808655236562E-001	0.000000000000000E+000	1.389808655236562E-001	0.0000000E+000	0.000000000000000E+000	4.0506716E+000	0.0000000E+000
3	0	0	0	0	0	4	14	4.612139883487544E+001	0.0000000E+000	4.0519862E+000	0.0000000E+000	0.000000000000000E+000	-4.137312189737956E-005	1.078654442091028E-004	-1.389808655236562E-001	1	1.6019905E-005	0.0000000E+000	6.186159529049053E-004	-5.107505086958024E-004	2.416942852182248E+006	2.050804230605789E+006	1.389808655236562E-001	0.000000000000000E+000	1.389808655236562E-001	0.0000000E+000	0.000000000000000E+000	4.0519700E+000	0.0000000E+000
3	0	0	0	0	0	4	14	4.713139880936069E+001	0.0000000E+000	4.0528646E+000	0.0000000E+000	0.000000000000000E+000	-4.137312189737956E-005	1.078654442091028E-004	-1.389808655236562E-001	1	5.4202344E-005	0.0000000E+000	6.186159529049053E-004	-5.107505086958024E-004	2.416942852182248E+006	2.050804230605789E+006	1.389808655236562E-001	0.000000000000000E+000	1.389808655236562E-001	0.0000000E+000	0.000000000000000E+000	4.0528102E+000	0.0000000E+000
3	0	0	0	0	0	4	14	4.814139878384594E+001	0.0000000E+000	4.0535707E+000	0.0000000E+000	0.000000000000000E+000	-4.137312189737956E-005	1.078654442091028E-004	-1.389808655236562E-001	1	-2.2162534E-005	0.0000000E+000	6.186159529049053E-004	-5.107505086958024E-004	2.416942852182248E+006	2.050804230605789E+006	1.389808655236562E-001	0.000000000000000E+000	1.389808655236562E-001	0.0000000E+000	0.000000000000000E+000	4.0535927E+000	0.0000000E+000
3	0	0	0	0	0	4	14	4.915139875833120E+001	0.0000000E+000	4.0542197E+000	0.0000000E+000	0.000000000000000E+000	-4.137312189737956E-005	1.078654442091028E-004	-1.389808655236562E-001	1	-2.2162534E-005	0.0000000E+000	6.186159529049053E-004	-5.107505086958024E-004	2.416942852182248E+006	2.050804230605789E+006	1.389808655236562E-001	0.000000000000000E+000	1.389808655236562E-001	0.0000000E+000	0.000000000000000E+000	4.0542417E+000	0.0000000E+000
3	0	0	0	0	0	4	14	5.002219873633294E+001	0.0000000E+000	4.0547738E+000	0.0000000E+000	0.000000000000000E+000	-4.137312189737956E-005	1.078654442091028E-004	-1.389808655236562E-001	1	3.5111123E-005	0.0000000E+000	6.186159529049053E-004	-5.107505086958024E-004	2.416942852182248E+006	2.050804230605789E+006	1.389808655236562E-001	0.000000000000000E+000	1.389808655236562E-001	0.0000000E+000	0.000000000000000E+000	4.0547385E+000	0.0000000E+000
3	0	0	0	1	1	0	14	5.002239873632789E+001	0.0000000E+000	4.0547929E+000	0.0000000E+000	0.000000000000000E+000	-4.137312189737956E-005	1.078654442091028E-004	-1.389808655236562E-001	1	-2.2162534E-005	0.0000000E+000	6.186159529049053E-004	-5.107505086958024E-004	2.416942852182248E+006	2.050804230605789E+006	1.389808655236562E-001	0.000000000000000E+000	1.389808655236562E-001	0.0000000E+000	0.000000000000000E+000	4.0548148E+000	0.0000000E+000
3	0	0	0	0	1	0	14	5.102239871106576E+001	0.0000000E+000	4.0553083E+000	0.0000000E+000	0.000000000000000E+000	-4.137312189737956E-005	1.078654442091028E-004	-1.389808655236562E-001	1	3.5111123E-005	0.0000000E+000	6.186159529049053E-004	-5.107505086958024E-004	2.416942852182248E+006	2.050804230605789E+006	1.389808655236562E-001	0.000000000000000E+000	1.389808655236562E-001	0.0000000E+000	0.000000000000000E+000	4.0552731E+000	0.0000000E+000
3	0	0	0	0	1	0	14	5.202239868580364E+001	0.0000000E+000	4.0557666E+000	0.0000000E+000	0.000000000000000E+000	-4.137312189737956E-005	1.078654442091028E-004	-1.389808655236562E-001	1	1.1147600E-004	0.0000000E+000	6.186159529049053E-004	-5.107505086958024E-004	2.416942852182248E+006	2.050804230605789E+006	1.389808655236562E-001	0.000000000000000E+000	1.389808655236562E-001	0.0000000E+000	0.000000000000000E+000	4.0556550E+000	0.0000000E+000
3	0	0	0	0	1	0	14	5.302239866054151E+001	0.0000000E+000	4.0562248E+000	0.0000000E+000	0.000000000000000E+000	-4.137312189737956E-005	1.078654442091028E-004	-1.389808655236562E-001	1	3.5111123E-005	0.0000000E+000	6.186159529049053E-004	-5.107505086958024E-004	2.416942852182248E+006	2.050804230605789E+006	1.389808655236562E-001	0.000000000000000E+000	1.389808655236562E-001	0.0000000E+000	0.000000000000000E+000	4.0561895E+000	0.0000000E+000
3	0	0	0	0	1	0	14	5.402239863527939E+001	0.0000000E+000	4.0565491E+000	0.0000000E+000	0.000000000000000E+000	-4.137312189737956E-005	1.078654442091028E-004	-1.389808655236562E-001	1	7.3293559E-005	0.0000000E+000	6.186159529049053E-004	-5.107505086958024E-004	2.416942852182248E+006	2.050804230605789E+006	1.389808655236562E-001	0.000000000000000E+000	1.389808655236562E-001	0.0000000E+000	0.000000000000000E+000	4.0564756E+000	0.0000000E+000
3	0	0	0	0	1	0	14	5.502239861001726E+001	0.0000000E+000	4.0569692E+000	0.0000000E+000	0.000000000000000E+000	-4.137312189737956E-005	1.078654442091028E-004	-1.389808655236562E-001	1	7.3293559E-005	0.0000000E+000	6.186159529049053E-004	-5.107505086958024E-004	2.416942852182248E+006	2.050804230605789E+006	1.389808655236562E-001	0.000000000000000E+000	1.389808655236562E-001	0.0000000E+000	0.000000000000000E+000	4.0568957E+000	0.0000000E+000
3	0	0	0	0	1	0	14	5.602239858475514E+001	0.0000000E+000	4.0572557E+000	0.0000000E+000	0.000000000000000E+000	-4.137312189737956E-005	1.078654442091028E-004	-1.389808655236562E-001	1	-2.2162534E-005	0.0000000E+000	6.186159529049053E-004	-5.107505086958024E-004	2.416942852182248E+006	2.050804230605789E+006	1.389808655236562E-001	0.000000000000000E+000	1.389808655236562E-001	0.0000000E+000	0.000000000000000E+000	4.0572777E+000	0.0000000E+000
3	0	0	0	0	1	0	14	5.702239855949301E+001	0.0000000E+000	4.0574846E+000	0.0000000E+000	0.000000000000000E+000	-4.137312189737956E-005	1.078654442091028E-004	-1.389808655236562E-001	1	-9.8527416E-005	0.0000000E+000	6.186159529049053E-004	-5.107505086958024E-004	2.416942852182248E+006	2.050804230605789E+006	1.389808655236562E-001	0.000000000000000E+000	1.389808655236562E-001	0.0000000E+000	0.000000000000000E+000	4.0575833E+000	0.0000000E+000
3	0	0	0	0	1	0	14	5.802239853423089E+001	0.0000000E+000	4.0578856E+000	0.0000000E+000	0.000000000000000E+000	-4.137312189737956E-005	1.078654442091028E-004	-1.389808655236562E-001	1	-4.1253756E-005	0.0000000E+000	6.186159529049053E-004	-5.107505086958024E-004	2.416942852182248E+006	2.050804230605789E+006	1.389808655236562E-001	0.000000000000000E+000	1.389808655236562E-001	0.0000000E+000	0.000000000000000E+000	4.0579271E+000	0.0000000E+000
3	0	0	0	0	1	0	14	5.902239850896876E+001	0.0000000E+000	4.0580001E+000	0.0000000E+000	0.000000000000000E+000	-4.137312189737956E-005	1.078654442091028E-004	-1.389808655236562E-001	1	3.5111123E-005	0.0000000E+000	6.186159529049053E-004	-5.107505086958024E-004	2.416942852182248E+006	2.050804230605789E+006	1.389808655236562E-001	0.000000000000000E+000	1.389808655236562E-001	0.0000000E+000	0.000000000000000E+000	4.0579648E+000	0.0000000E+000
3	0	0	1	0	1	0	10	6.002219848371169E+001	5.0000999E+001	4.0580764E+000	0.0000000E+000	0.000000000000000E+000	-4.137312189737956E-005	1.078654442091028E-004	-1.389808655236562E-001	1	-2.2162534E-005	0.0000000E+000	6.186159529049053E-004	-5.107505086958024E-004	2.416942852182248E+006	2.050804230605789E+006	1.389808655236562E-001	0.000000000000000E+000	1.389808655236562E-001	1.0002978E+002	0.000000000000000E+000	4.0580983E+000	0.0000000E+000
1	1	0	1	1	1	1	10	6.002239848370664E+001	5.0000999E+001	4.2523527E+000	4.9351345E+001	2.741741392347548E-006	-3.863138050503201E-005	1.078771030605551E-004	2.741741392347548E-006	2	1.5566872E-001	2.0985933E-001	1.165885145231187E-008	0.000000000000000E+000	0.000000000000000E+000	0.000000000000000E+000	0.000000000000000E+000	2.741741392347548E-006	2.741741392347548E-006	0.0000000E+000	1.000000000000000E+000	4.0966840E+000	8.6164879E+001
1	1	0	1	0	1	1	10	6.052539847099979E+001	5.0000999E+001	4.4223800E+000	5.0009167E+001	6.987545495775011E-003	6.948914115269979E-003	1.387786843043812E-004	6.990287237167358E-003	2	1.6164228E-001	2.2115953E-001	3.091324009527835E-005	0.000000000000000E+000	1.480058823747171E+005	0.000000000000000E+000	0.000000000000000E+000	6.990287237167358E-003	6.990287237167358E-003	0.0000000E+000	1.000000000000000E+000	4.2607379E+000	8.8431389E+001
1	1	0	1	0	1	1	10	6.102839845829294E+001	5.0000999E+001	4.4292150E+000	5.0001534E+001	6.987443723042806E-003	1.393635783831279E-002	1.697275745353446E-004	1.397773096021016E-002	2	1.6171864E-001	2.2146754E-001	6.186213032624181E-005	0.000000000000000E+000	2.845142722547700E+005	0.000000000000000E+000	0.000000000000000E+000	1.397773096021016E-002	1.397773096021016E-002	0.0000000E+000	1.000000000000000E+000	4.2674961E+000	8.8581581E+001
1	1	0	1	0	1	1	10	6.153139844558609E+001	5.0000999E+001	4.4326329E+000	5.0011711E+001	6.987359087838067E-003	2.092371692615085E-002	2.006999724738008E-004	2.096509004804823E-002	2	1.6168046E-001	2.2168356E-001	9.283452826469802E-005	0.000000000000000E+000	4.186500823593203E+005	0.000000000000000E+000	0.000000000000000E+000	2.096509004804823E-002	2.096509004804823E-002	0.0000000E+000	1.000000000000000E+000	4.2709522E+000	8.8631897E+001
1	1	0	1	0	1	1	10	6.203439843287924E+001	5.0000999E+001	4.4353819E+000	5.0003441E+001	6.987353811475965E-003	2.791107073762682E-002	2.316915550236549E-004	2.795244385952420E-002	2	1.6173774E-001	2.2178435E-001	1.238261108145521E-004	0.000000000000000E+000	5.497964901042101E+005	0.000000000000000E+000	0.000000000000000E+000	2.795244385952420E-002	2.795244385952420E-002	0.0000000E+000	1.000000000000000E+000	4.2736440E+000	8.8701530E+001
1	1	0	1	0	1	1	10	6.253739842017239E+001	5.0000999E+001	4.4377112E+000	5.0007900E+001	6.987297571606106E-003	3.489836830923292E-002	2.626991639864381E-004	3.493974143113030E-002	2	1.6183320E-001	2.2192062E-001	1.548337197773353E-004	0.000000000000000E+000	6.785933887411408E+005	0.000000000000000E+000	0.000000000000000E+000	3.493974143113030E-002	3.493974143113030E-002	0.0000000E+000	1.000000000000000E+000	4.2758780E+000	8.8740204E+001
1	1	0	1	0	1	1	10	6.304039840746555E+001	5.0000999E+001	4.4398689E+000	5.0009167E+001	6.987282204522027E-003	4.188565051375495E-002	2.937217811304892E-004	4.192702363565233E-002	2	1.6164228E-001	2.2203414E-001	1.858563369213863E-004	0.000000000000000E+000	8.049292544122060E+005	0.000000000000000E+000	0.000000000000000E+000	4.192702363565233E-002	4.192702363565233E-002	0.0000000E+000	1.000000000000000E+000	4.2782269E+000	8.8781105E+001
1	1	0	1	0	1	1	10	6.354339839475870E+001	5.0000999E+001	4.4417782E+000	5.0009167E+001	6.987284869935778E-003	4.887293538369073E-002	3.247577506240599E-004	4.891430850558811E-002	2	1.6177592E-001	2.2212963E-001	2.168923064149570E-004	0.000000000000000E+000	9.296084210102353E+005	0.000000000000000E+000	0.000000000000000E+000	4.891430850558811E-002	4.891430850558811E-002	0.0000000E+000	1.000000000000000E+000	4.2800021E+000	8.8819283E+001
1	1	0	1	0	1	1	10	6.404639838205185E+001	5.0000999E+001	4.4436107E+000	5.0011074E+001	6.987216481314765E-003	5.586015186500549E-002	3.558062203213299E-004	5.590152498690287E-002	2	1.6177592E-001	2.2222975E-001	2.479407761122270E-004	0.000000000000000E+000	1.052220240354827E+006	0.000000000000000E+000	0.000000000000000E+000	5.590152498690287E-002	5.590152498690287E-002	0.0000000E+000	1.000000000000000E+000	4.2818346E+000	8.8852531E+001
1	1	0	1	0	1	1	10	6.454939836934500E+001	5.0000999E+001	4.4453101E+000	5.0004078E+001	6.987182400173611E-003	6.284733426517911E-002	3.868664129258606E-004	6.288870738707648E-002	2	1.6177592E-001	2.2228363E-001	2.790009687167578E-004	0.000000000000000E+000	1.173312581413084E+006	0.000000000000000E+000	0.000000000000000E+000	6.288870738707648E-002	6.288870738707648E-002	0.0000000E+000	1.000000000000000E+000	4.2835340E+000	8.8898949E+001
1	1	0	1	0	1	1	10	6.505239835663815E+001	5.0000999E+001	4.4470668E+000	5.0007263E+001	6.987195542865329E-003	6.983452980804443E-002	4.179389381371863E-004	6.987590292994181E-002	2	1.6169955E-001	2.2238564E-001	3.100734939280834E-004	0.000000000000000E+000	1.291911012728942E+006	0.000000000000000E+000	0.000000000000000E+000	6.987590292994181E-002	6.987590292994181E-002	0.0000000E+000	1.000000000000000E+000	4.2853670E+000	8.8928421E+001
1	1	0	1	0	1	1	10	6.555539834393130E+001	5.0000999E+001	4.4486322E+000	5.0005993E+001	6.987121609157986E-003	7.682165141720242E-002	4.490220725945512E-004	7.686302453909979E-002	2	1.6173774E-001	2.2245827E-001	3.411566283854484E-004	0.000000000000000E+000	1.409759307670032E+006	0.000000000000000E+000	0.000000000000000E+000	7.686302453909979E-002	7.686302453909979E-002	0.0000000E+000	1.000000000000000E+000	4.2868943E+000	8.8961983E+001
1	1	0	1	0	1	1	10	6.605839833122445E+001	5.0000999E+001	4.4500260E+000	5.0007263E+001	6.987172719319662E-003	8.380882413652208E-002	4.801151731087234E-004	8.385019725841945E-002	2	1.6171864E-001	2.2253363E-001	3.722497288996205E-004	0.000000000000000E+000	1.527068543969741E+006	0.000000000000000E+000	0.000000000000000E+000	8.385019725841945E-002	8.385019725841945E-002	0.0000000E+000	1.000000000000000E+000	4.2883072E+000	8.8987595E+001
1	1	0	1	0	1	1	10	6.656139831851760E+001	5.0000999E+001	4.4514771E+000	5.0009167E+001	6.987179192648994E-003	9.079600332917108E-002	5.112184409344966E-004	9.083737645106844E-002	2	1.6173774E-001	2.2261466E-001	4.033529967253938E-004	0.000000000000000E+000	1.642263127623481E+006	0.000000000000000E+000	0.000000000000000E+000	9.083737645106844E-002	9.083737645106844E-002	0.0000000E+000	1.000000000000000E+000	4.2897391E+000	8.9013222E+001
1	1	0	1	0	1	1	10	6.706439830581076E+001	5.0000999E+001	4.4528327E+000	5.0005356E+001	6.987155701107449E-003	9.778315903027852E-002	5.423310763121486E-004	9.782453215217589E-002	2	1.6171864E-001	2.2266549E-001	4.344656321030457E-004	0.000000000000000E+000	1.756625814824099E+006	0.000000000000000E+000	0.000000000000000E+000	9.782453215217589E-002	9.782453215217589E-002	0.0000000E+000	1.000000000000000E+000	4.2911139E+000	8.9047119E+001
1	1	0	1	0	1	1	10	6.756739829310391E+001	5.0000999E+001	4.4543219E+000	5.0011711E+001	6.987129135343764E-003	1.047702881656223E-001	5.734539983672065E-004	1.048116612875196E-001	2	1.6173774E-001	2.2276826E-001	4.655885541581037E-004	0.000000000000000E+000	1.868215946578525E+006	0.000000000000000E+000	0.000000000000000E+000	1.048116612875196E-001	1.048116612875196E-001	0.0000000E+000	1.000000000000000E+000	4.2925839E+000	8.9065575E+001
1	1	0	1	0	1	1	10	6.807039828039706E+001	5.0000999E+001	4.4554291E+000	5.0003441E+001	6.987113175498115E-003	1.117574013411204E-001	6.045845855746478E-004	1.117987744630178E-001	2	1.6169955E-001	2.2278678E-001	4.967191413655450E-004	0.000000000000000E+000	1.981892835258592E+006	0.000000000000000E+000	0.000000000000000E+000	1.117987744630178E-001	1.117987744630178E-001	0.0000000E+000	1.000000000000000E+000	4.2937293E+000	8.9102448E+001
1	1	0	1	0	1	1	10	6.857339826769021E+001	5.0000999E+001	4.4567657E+000	5.0009808E+001	6.987106562084622E-003	1.187445079032050E-001	6.357244821053343E-004	1.187858810251024E-001	2	1.6171864E-001	2.2288199E-001	5.278590378962315E-004	0.000000000000000E+000	2.091986826384874E+006	0.000000000000000E+000	0.000000000000000E+000	1.187858810251024E-001	1.187858810251024E-001	0.0000000E+000	1.000000000000000E+000	4.2950468E+000	8.9117836E+001
1	1	0	1	0	1	1	10	6.907639825498336E+001	5.0000999E+001	4.4581213E+000	5.0012352E+001	6.987044947094388E-003	1.257315528502994E-001	6.668735760062421E-004	1.257729259721968E-001	2	1.6185229E-001	2.2296113E-001	5.590081317971392E-004	0.000000000000000E+000	2.200445384064070E+006	0.000000000000000E+000	0.000000000000000E+000	1.257729259721968E-001	1.257729259721968E-001	0.0000000E+000	1.000000000000000E+000	4.2962689E+000	8.9140404E+001
1	1	0	1	0	1	1	10	6.957939824227651E+001	5.0000999E+001	4.4589996E+000	5.0000267E+001	6.987047970241971E-003	1.327186008205414E-001	6.980288203468177E-004	1.327599739424387E-001	2	1.6171864E-001	2.2295117E-001	5.901633761377148E-004	0.000000000000000E+000	2.312814088524817E+006	0.000000000000000E+000	0.000000000000000E+000	1.327599739424387E-001	1.327599739424387E-001	0.0000000E+000	1.000000000000000E+000	4.2972808E+000	8.9179520E+001
1	1	0	1	0	1	1	10	7.002419823103992E+001	5.0000999E+001	4.4600687E+000	5.0007263E+001	6.178582917955187E-003	1.388971837384966E-001	7.255857246462126E-004	1.389385568603939E-001	2	1.6175683E-001	2.2303583E-001	6.177202804371097E-004	0.000000000000000E+000	2.407993766537194E+006	0.000000000000000E+000	0.000000000000000E+000	1.389385568603939E-001	1.389385568603939E-001	0.0000000E+000	1.000000000000000E+000	4.2983117E+000	8.9188416E+001
3	1	0	0	1	1	2	10	7.007259822981723E+001	0.0000000E+000	4.1857939E+000	0.0000000E+000	0.000000000000000E+000	1.389027405605316E-001	7.255857246462126E-004	1.389385568603939E-001	2	-7.9436199E-005	0.0000000E+000	6.177202804371097E-004	0.000000000000000E+000	2.407993766537194E+006	0.000000000000000E+000	0.000000000000000E+000	1.389385568603939E-001	1.389385568603939E-001	0.0000000E+000	1.000000000000000E+000	4.1858735E+000	0.0000000E+000
3	1	0	0	0	1	2	14	7.107759820442880E+001	0.0000000E+000	4.1009011E+000	0.0000000E+000	0.000000000000000E+000	1.389027405605316E-001	7.255857246462126E-004	1.389385568603939E-001	2	-9.8527416E-005	0.0000000E+000	6.177202804371097E-004	0.000000000000000E+000	2.407993766537194E+006	0.000000000000000E+000	0.000000000000000E+000	1.389385568603939E-001	1.389385568603939E-001	0.0000000E+000	1.000000000000000E+000	4.1009998E+000	0.0000000E+000
3	1	0	0	0	1	2	14	7.208259817904036E+001	0.0000000E+000	4.0964141E+000	0.0000000E+000	0.000000000000000E+000	1.389027405605316E-001	7.255857246462126E-004	1.389385568603939E-001	2	-6.0344973E-005	0.0000000E+000	6.177202804371097E-004	0.000000000000000E+000	2.407993766537194E+006	0.000000000000000E+000	0.000000000000000E+000	1.389385568603939E-001	1.389385568603939E-001	0.0000000E+000	1.000000000000000E+000	4.0964746E+000	0.0000000E+000
3	1	0	0	0	1	2	14	7.308759815365192E+001	0.0000000E+000	4.0938559E+000	0.0000000E+000	0.000000000000000E+000	1.389027405605316E-001	7.255857246462126E-004	1.389385568603939E-001	2	-4.1253756E-005	0.0000000E+000	6.177202804371097E-004	0.000000000000000E+000	2.407993766537194E+006	0.000000000000000E+000	0.000000000000000E+000	1.389385568603939E-001	1.389385568603939E-001	0.0000000E+000	1.000000000000000E+000	4.0938973E+000	0.0000000E+000
3	1	0	0	0	1	2	14	7.409259812826349E+001	0.0000000E+000	4.0922141E+000	0.0000000E+000	0.000000000000000E+000	1.389027405605316E-001	7.255857246462126E-004	1.389385568603939E-001	2	-4.1253756E-005	0.0000000E+000	6.177202804371097E-004	0.000000000000000E+000	2.407993766537194E+006	0.000000000000000E+000	0.000000000000000E+000	1.389385568603939E-001	1.389385568603939E-001	0.0000000E+000	1.000000000000000E+000	4.0922556E+000	0.0000000E+000
3	1	0	0	0	1	2	14	7.509759810287505E+001	0.0000000E+000	4.0908585E+000	0.0000000E+000	0.000000000000000E+000	1.389027405605316E-001	7.255857246462126E-004	1.389385568603939E-001	2	-1.1761863E-004	0.0000000E+000	6.177202804371097E-004	0.000000000000000E+000	2.407993766537194E+006	0.000000000000000E+000	0.000000000000000E+000	1.389385568603939E-001	1.389385568603939E-001	0.0000000E+000	1.000000000000000E+000	4.0909762E+000	0.0000000E+000
3	1	0	0	0	1	2	14	7.610259807748662E+001	0.0000000E+000	4.0897703E+000	0.0000000E+000	0.000000000000000E+000	1.389027405605316E-001	7.255857246462126E-004	1.389385568603939E-001	2	1.6019905E-005	0.0000000E+000	6.177202804371097E-004	0.000000000000000E+000	2.407993766537194E+006	0.000000000000000E+000	0.000000000000000E+000	1.389385568603939E-001	1.389385568603939E-001	0.0000000E+000	1.000000000000000E+000	4.0897541E+000	0.0000000E+000
3	1	0	0	0	1	2	14	7.710759805209818E+001	0.0000000E+000	4.0887008E+000	0.0000000E+000	0.000000000000000E+000	1.389027405605316E-001	7.255857246462126E-004	1.389385568603939E-001	2	-6.0344973E-005	0.0000000E+000	6.177202804371097E-004	0.000000000000000E+000	2.407993766537194E+006	0.000000000000000E+000	0.000000000000000E+000	1.389385568603939E-001	1.389385568603939E-001	0.0000000E+000	1.000000000000000E+000	4.0887613E+000	0.0000000E+000
3	1	0	0	0	1	2	14	7.811259802670975E+001	0.0000000E+000	4.0878034E+000	0.0000000E+000	0.000000000000000E+000	1.389027405605316E-001	7.255857246462126E-004	1.389385568603939E-001	2	-7.9436199E-005	0.0000000E+000	6.177202804371097E-004	0.000000000000000E+000	2.407993766537194E+006	0.000000000000000E+000	0.000000000000000E+000	1.389385568603939E-001	1.389385568603939E-001	0.0000000E+000	1.000000000000000E+000	4.0878830E+000	0.0000000E+000
3	1	0	0	0	1	2	14	7.911759800132131E+001	0.0000000E+000	4.0870781E+000	0.0000000E+000	0.000000000000000E+000	1.389027405605316E-001	7.255857246462126E-004	1.389385568603939E-001	2	7.3293559E-005	0.0000000E+000	6.177202804371097E-004	0.000000000000000E+000	2.407993766537194E+006	0.000000000000000E+000	0.000000000000000E+000	1.389385568603939E-001	1.389385568603939E-001	0.0000000E+000	1.000000000000000E+000	4.0870047E+000	0.0000000E+000
3	1	0	1	0	1	2	10	8.002839797831257E+001	-5.0006001E+001	4.0863523E+000	0.0000000E+000	0.000000000000000E+000	1.389027405605316E-001	7.255857246462126E-004	1.389385568603939E-001	2	-2.2162534E-005	0.0000000E+000	6.177202804371097E-004	0.000000000000000E+000	2.407993766537194E+006	0.000000000000000E+000	0.000000000000000E+000	1.389385568603939E-001	1.389385568603939E-001	0.0000000E+000	1.000000000000000E+000	4.0863743E+000	0.0000000E+000
1	0	0	1	1	1	3	10	8.002859797830752E+001	-5.0006001E+001	3.8964634E+000	-4.9299824E+001	-2.738879097832574E-006	1.389000016814338E-001	7.255750527040668E-004	-2.738879097832574E-006	3	-1.5392968E-001	-1.9209495E-001	6.177202804371097E-004	-1.067194214574839E-008	2.407993766537194E+006	0.000000000000000E+000	2.738879097832574E-006	0.000000000000000E+000	2.738879097832574E-006	0.0000000E+000	1.000000000000000E+000	4.0503931E+000	7.9036049E+001
1	0	0	1	0	1	3	10	8.053659796547436E+001	-5.0006001E+001	3.7105362E+000	-4.9995182E+001	-7.055006376054552E-003	1.318449953053792E-001	6.993971958614815E-004	-7.057745255152384E-003	3	-1.5991114E-001	-1.8550894E-001	6.177202804371097E-004	-2.618852878473107E-005	2.407993766537194E+006	1.366550423574218E+005	7.057745255152384E-003	0.000000000000000E+000	7.057745255152384E-003	0.0000000E+000	1.000000000000000E+000	3.8704474E+000	7.4217873E+001
1	0	0	1	0	1	3	10	8.104459795264120E+001	-5.0006001E+001	3.6988897E+000	-4.9991360E+001	-7.055045738855997E-003	1.247899495665232E-001	6.733013596166910E-004	-1.411279099400838E-002	3	-1.5994932E-001	-1.8491253E-001	6.177202804371097E-004	-5.228436502952161E-005	2.407993766537194E+006	2.571499010266881E+005	1.411279099400838E-002	0.000000000000000E+000	1.411279099400838E-002	0.0000000E+000	1.000000000000000E+000	3.8588390E+000	7.3990578E+001
1	0	0	1	0	1	3	10	8.155259793980804E+001	-5.0006001E+001	3.6936202E+000	-4.9999634E+001	-7.055106015311347E-003	1.177348435512119E-001	6.472424774906452E-004	-2.116789700931973E-002	3	-1.5998749E-001	-1.8467966E-001	6.177202804371097E-004	-7.834324715556730E-005	2.407993766537194E+006	3.756814784822505E+005	2.116789700931973E-002	0.000000000000000E+000	2.116789700931973E-002	0.0000000E+000	1.000000000000000E+000	3.8536077E+000	7.3872948E+001
1	0	0	1	0	1	3	10	8.206059792697488E+001	-5.0006001E+001	3.6897063E+000	-4.9997726E+001	-7.055196776919894E-003	1.106796467742920E-001	6.212108733149779E-004	-2.822309378623963E-002	3	-1.5996841E-001	-1.8447693E-001	6.177202804371097E-004	-1.043748513312346E-004	2.407993766537194E+006	4.914131270176960E+005	2.822309378623963E-002	0.000000000000000E+000	2.822309378623963E-002	0.0000000E+000	1.000000000000000E+000	3.8496747E+000	7.3797485E+001
1	0	0	1	0	1	3	10	8.256859791414172E+001	-5.0006001E+001	3.6864033E+000	-5.0000271E+001	-7.055233346303304E-003	1.036244134279887E-001	5.952024380045489E-004	-3.527832713254293E-002	3	-1.5981568E-001	-1.8432117E-001	6.177202804371097E-004	-1.303832866416636E-004	2.407993766537194E+006	6.045982355028512E+005	3.527832713254293E-002	0.000000000000000E+000	3.527832713254293E-002	0.0000000E+000	1.000000000000000E+000	3.8462191E+000	7.3727669E+001
1	0	0	1	0	1	3	10	8.307659790130856E+001	-5.0006001E+001	3.6832340E+000	-4.9998993E+001	-7.055290557225545E-003	9.656912287076315E-002	5.692161521110548E-004	-4.233361768976848E-002	3	-1.6004477E-001	-1.8415798E-001	6.177202804371097E-004	-1.563695725351578E-004	2.407993766537194E+006	7.147279453976020E+005	4.233361768976848E-002	0.000000000000000E+000	4.233361768976848E-002	0.0000000E+000	1.000000000000000E+000	3.8432786E+000	7.3666161E+001
1	0	0	1	0	1	3	10	8.358459788847540E+001	-5.0006001E+001	3.6805038E+000	-4.9993267E+001	-7.055327352099948E-003	8.951379551866319E-002	5.432489926624015E-004	-4.938894504186842E-002	3	-1.6002569E-001	-1.8400042E-001	6.177202804371097E-004	-1.823367319838111E-004	2.407993766537194E+006	8.233032668156326E+005	4.938894504186842E-002	0.000000000000000E+000	4.938894504186842E-002	0.0000000E+000	1.000000000000000E+000	3.8405294E+000	7.3619987E+001
1	0	0	1	0	1	3	10	8.409259787564224E+001	-5.0006001E+001	3.6778882E+000	-4.9999634E+001	-7.055359629525079E-003	8.245843588913812E-002	5.173001690518223E-004	-5.644430467139350E-002	3	-1.5996841E-001	-1.8389305E-001	6.177202804371097E-004	-2.082855555943903E-004	2.407993766537194E+006	9.296546927178106E+005	5.644430467139350E-002	0.000000000000000E+000	5.644430467139350E-002	0.0000000E+000	1.000000000000000E+000	3.8378565E+000	7.3558304E+001
1	0	0	1	0	1	3	10	8.460059786280908E+001	-5.0006001E+001	3.6755207E+000	-4.9999634E+001	-7.055388710657756E-003	7.540304717848036E-002	4.913679420921011E-004	-6.349969338205125E-002	3	-1.5998749E-001	-1.8377468E-001	6.177202804371097E-004	-2.342177825541115E-004	2.407993766537194E+006	1.034652239097616E+006	6.349969338205125E-002	0.000000000000000E+000	6.349969338205125E-002	0.0000000E+000	1.000000000000000E+000	3.8355081E+000	7.3510948E+001
1	0	0	1	0	1	3	10	8.510859784997592E+001	-5.0006001E+001	3.6730959E+000	-5.0004089E+001	-7.055380950291952E-003	6.834766622818841E-002	4.654528509575398E-004	-7.055507433234320E-002	3	-1.5996841E-001	-1.8366982E-001	6.177202804371097E-004	-2.601328736886727E-004	2.407993766537194E+006	1.137131952822534E+006	7.055507433234320E-002	0.000000000000000E+000	7.055507433234320E-002	0.0000000E+000	1.000000000000000E+000	3.8330643E+000	7.3455910E+001
1	0	0	1	0	1	3	10	8.561659783714276E+001	-5.0006001E+001	3.6709385E+000	-4.9998363E+001	-7.055426088333130E-003	6.129224013985528E-002	4.395528157536776E-004	-7.761050042067634E-002	3	-1.5985386E-001	-1.8354091E-001	6.177202804371097E-004	-2.860329088925349E-004	2.407993766537194E+006	1.238877829502706E+006	7.761050042067634E-002	0.000000000000000E+000	7.761050042067634E-002	0.0000000E+000	1.000000000000000E+000	3.8307924E+000	7.3421173E+001
1	0	0	1	0	1	3	10	8.612459782430960E+001	-5.0006001E+001	3.6687045E+000	-4.9995182E+001	-7.055464574178060E-003	5.423677556567722E-002	4.136684010521143E-004	-8.466596499485440E-002	3	-1.5994932E-001	-1.8341754E-001	6.177202804371097E-004	-3.119173235940983E-004	2.407993766537194E+006	1.338246254342032E+006	8.466596499485440E-002	0.000000000000000E+000	8.466596499485440E-002	0.0000000E+000	1.000000000000000E+000	3.8286538E+000	7.3381165E+001
1	0	0	1	0	1	3	10	8.663259781147644E+001	-5.0006001E+001	3.6664898E+000	-5.0001537E+001	-7.055486248228285E-003	4.718128931744894E-002	3.877995324098735E-004	-9.172145124308269E-002	3	-1.5991114E-001	-1.8333013E-001	6.177202804371097E-004	-3.377861922363391E-004	2.407993766537194E+006	1.435805195224860E+006	9.172145124308269E-002	0.000000000000000E+000	9.172145124308269E-002	0.0000000E+000	1.000000000000000E+000	3.8264010E+000	7.3327545E+001
1	0	0	1	0	1	3	10	8.714059779864328E+001	-5.0006001E+001	3.6644087E+000	-4.9994545E+001	-7.055493556340536E-003	4.012579576110840E-002	3.619453205536876E-004	-9.877694479942323E-002	3	-1.5994932E-001	-1.8320045E-001	6.177202804371097E-004	-3.636404040925250E-004	2.407993766537194E+006	1.532384327312629E+006	9.877694479942323E-002	0.000000000000000E+000	9.877694479942323E-002	0.0000000E+000	1.000000000000000E+000	3.8243580E+000	7.3296173E+001
1	0	0	1	0	1	3	10	8.764859778581013E+001	-5.0006001E+001	3.6623659E+000	-5.0003452E+001	-7.055494516796536E-003	3.307030124431187E-002	3.361055179332540E-004	-1.058324393162198E-001	3	-1.5977749E-001	-1.8313093E-001	6.177202804371097E-004	-3.894802067129585E-004	2.407993766537194E+006	1.627513377242748E+006	1.058324393162198E-001	0.000000000000000E+000	1.058324393162198E-001	0.0000000E+000	1.000000000000000E+000	3.8221433E+000	7.3242264E+001
1	0	0	1	0	1	3	10	8.815659777297697E+001	-5.0006001E+001	3.6603420E+000	-5.0002815E+001	-7.055482784059312E-003	2.601481846025255E-002	3.102800381231895E-004	-1.128879221002791E-001	3	-1.5973932E-001	-1.8302740E-001	6.177202804371097E-004	-4.153056865230230E-004	2.407993766537194E+006	1.721133670496029E+006	1.128879221002791E-001	0.000000000000000E+000	1.128879221002791E-001	0.0000000E+000	1.000000000000000E+000	3.8200812E+000	7.3202721E+001
1	0	0	1	0	1	3	10	8.866459776014381E+001	-5.0006001E+001	3.6583183E+000	-4.9993267E+001	-7.055526105880738E-003	1.895929235437181E-002	2.844686779867477E-004	-1.199434482061598E-001	3	-1.5973932E-001	-1.8289128E-001	6.177202804371097E-004	-4.411170466594649E-004	2.407993766537194E+006	1.813165124903865E+006	1.199434482061598E-001	0.000000000000000E+000	1.199434482061598E-001	0.0000000E+000	1.000000000000000E+000	3.8180575E+000	7.3176216E+001
1	0	0	1	0	1	3	10	8.917259774731065E+001	-5.0006001E+001	3.6564472E+000	-5.0002178E+001	-7.055495003594293E-003	1.190379735077752E-002	2.586706332326317E-004	-1.269989432097541E-001	3	-1.5981568E-001	-1.8283032E-001	6.177202804371097E-004	-4.669150914135809E-004	2.407993766537194E+006	1.904855395794382E+006	1.269989432097541E-001	0.000000000000000E+000	1.269989432097541E-001	0.0000000E+000	1.000000000000000E+000	3.8162630E+000	7.3125755E+001
1	0	0	1	0	1	3	10	8.968059773447749E+001	-5.0006001E+001	3.6544998E+000	-5.0002815E+001	-7.055498436821832E-003	4.848298913955688E-003	2.328863158235990E-004	-1.340544416465759E-001	3	-1.5964386E-001	-1.8273528E-001	6.177202804371097E-004	-4.926994088226135E-004	2.407993766537194E+006	1.994498098707912E+006	1.340544416465759E-001	0.000000000000000E+000	1.340544416465759E-001	0.0000000E+000	1.000000000000000E+000	3.8141437E+000	7.3085884E+001
1	0	0	1	0	1	3	10	9.003539772551449E+001	-5.0006001E+001	3.6530678E+000	-5.0001537E+001	-4.927747387992011E-003	-7.944847403632270E-005	2.148849203798347E-004	-1.389821890345679E-001	3	-1.5973932E-001	-1.8265900E-001	6.177202804371097E-004	-5.107008042663779E-004	2.407993766537194E+006	2.055649109858896E+006	1.389821890345679E-001	0.000000000000000E+000	1.389821890345679E-001	0.0000000E+000	1.000000000000000E+000	3.8128071E+000	7.3059113E+001
3	0	0	0	1	1	4	10	9.008379772429180E+001	0.0000000E+000	3.9315071E+000	0.0000000E+000	0.000000000000000E+000	-8.500356462266710E-005	2.148849203798347E-004	-1.389821890345679E-001	3	-2.2162534E-005	0.0000000E+000	6.177202804371097E-004	-5.107008042663779E-004	2.407993766537194E+006	2.055649109858896E+006	1.389821890345679E-001	0.000000000000000E+000	1.389821890345679E-001	0.0000000E+000	1.000000000000000E+000	3.9315293E+000	0.0000000E+000
3	0	0	0	0	1	4	14	9.109379769877705E+001	0.0000000E+000	4.0357575E+000	0.0000000E+000	0.000000000000000E+000	-8.500356462266710E-005	2.148849203798347E-004	-1.389821890345679E-001	3	-2.2162534E-005	0.0000000E+000	6.177202804371097E-004	-5.107008042663779E-004	2.407993766537194E+006	2.055649109858896E+006	1.389821890345679E-001	0.000000000000000E+000	1.389821890345679E-001	0.0000000E+000	1.000000000000000E+000	4.0357795E+000	0.0000000E+000
3	0	0	0	0	1	4	14	9.210379767326231E+001	0.0000000E+000	4.0424018E+000	0.0000000E+000	0.000000000000000E+000	-8.500356462266710E-005	2.148849203798347E-004	-1.389821890345679E-001	3	-7.9436199E-005	0.0000000E+000	6.177202804371097E-004	-5.107008042663779E-004	2.407993766537194E+006	2.055649109858896E+006	1.389821890345679E-001	0.000000000000000E+000	1.389821890345679E-001	0.0000000E+000	1.000000000000000E+000	4.0424814E+000	0.0000000E+000
3	0	0	0	0	1	4	14	9.311379764774756E+001	0.0000000E+000	4.0455327E+000	0.0000000E+000	0.000000000000000E+000	-8.500356462266710E-005	2.148849203798347E-004	-1.389821890345679E-001	3	-4.1253756E-005	0.0000000E+000	6.177202804371097E-004	-5.107008042663779E-004	2.407993766537194E+006	2.055649109858896E+006	1.389821890345679E-001	0.000000000000000E+000	1.389821890345679E-001	0.0000000E+000	1.000000000000000E+000	4.0455742E+000	0.0000000E+000
3	0	0	0	0	1	4	14	9.412379762223281E+001	0.0000000E+000	4.0475373E+000	0.0000000E+000	0.000000000000000E+000	-8.500356462266710E-005	2.148849203798347E-004	-1.389821890345679E-001	3	-7.9436199E-005	0.0000000E+000	6.177202804371097E-004	-5.107008042663779E-004	2.407993766537194E+006	2.055649109858896E+006	1.389821890345679E-001	0.000000000000000E+000	1.389821890345679E-001	0.0000000E+000	1.000000000000000E+000	4.0476170E+000	0.0000000E+000
3	0	0	0	0	1	4	14	9.513379759671807E+001	0.0000000E+000	4.0489311E+000	0.0000000E+000	0.000000000000000E+000	-8.500356462266710E-005	2.148849203798347E-004	-1.389821890345679E-001	3	1.4965843E-004	0.0000000E+000	6.177202804371097E-004	-5.107008042663779E-004	2.407993766537194E+006	2.055649109858896E+006	1.389821890345679E-001	0.000000000000000E+000	1.389821890345679E-001	0.0000000E+000	1.000000000000000E+000	4.0487814E+000	0.0000000E+000
3	0	0	0	0	1	4	14	9.614379757120332E+001	0.0000000E+000	4.0502486E+000	0.0000000E+000	0.000000000000000E+000	-8.500356462266710E-005	2.148849203798347E-004	-1.389821890345679E-001	3	-2.2162534E-005	0.0000000E+000	6.177202804371097E-004	-5.107008042663779E-004	2.407993766537194E+006	2.055649109858896E+006	1.389821890345679E-001	0.000000000000000E+000	1.389821890345679E-001	0.0000000E+000	1.000000000000000E+000	4.0502706E+000	0.0000000E+000
3	0	0	0	0	1	4	14	9.715379754568858E+001	0.0000000E+000	4.0511842E+000	0.0000000E+000	0.000000000000000E+000	-8.500356462266710E-005	2.148849203798347E-004	-1.389821890345679E-001	3	-3.0713145E-006	0.0000000E+000	6.177202804371097E-004	-5.107008042663779E-004	2.407993766537194E+006	2.055649109858896E+006	1.389821890345679E-001	0.000000000000000E+000	1.389821890345679E-001	0.0000000E+000	1.000000000000000E+000	4.0511870E+000	0.0000000E+000
3	0	0	0	0	1	4	14	9.816379752017383E+001	0.0000000E+000	4.0520434E+000	0.0000000E+000	0.000000000000000E+000	-8.500356462266710E-005	2.148849203798347E-004	-1.389821890345679E-001	3	-7.9436199E-005	0.0000000E+000	6.177202804371097E-004	-5.107008042663779E-004	2.407993766537194E+006	2.055649109858896E+006	1.389821890345679E-001	0.000000000000000E+000	1.389821890345679E-001	0.0000000E+000	1.000000000000000E+000	4.0521231E+000	0.0000000E+000
3	0	0	0	0	1	4	14	9.917379749465908E+001	0.0000000E+000	4.0527306E+000	0.0000000E+000	0.000000000000000E+000	-8.500356462266710E-005	2.148849203798347E-004	-1.389821890345679E-001	3	-2.2162534E-005	0.0000000E+000	6.177202804371097E-004	-5.107008042663779E-004	2.407993766537194E+006	2.055649109858896E+006	1.389821890345679E-001	0.000000000000000E+000	1.389821890345679E-001	0.0000000E+000	1.000000000000000E+000	4.0527525E+000	0.0000000E+000
3	0	0	0	1	1	4	14	9.999499747391383E+001	0.0000000E+000	4.0532651E+000	0.0000000E+000	0.000000000000000E+000	-8.500356462266710E-005	2.148849203798347E-004	-1.389821890345679E-001	3	1.4965843E-004	0.0000000E+000	6.177202804371097E-004	-5.107008042663779E-004	2.407993766537194E+006	2.055649109858896E+006	1.389821890345679E-001	0.000000000000000E+000	1.389821890345679E-001	0.0000000E+000	1.000000000000000E+000	4.0531154E+000	0.0000000E+000
3	0	0	0	0	1	4	14	1.000445974726608E+002	0.0000000E+000	4.0533609E+000	0.0000000E+000	0.000000000000000E+000	-8.500356462266710E-005	2.148849203798347E-004	-1.389821890345679E-001	3	-1.3670986E-004	0.0000000E+000	6.177202804371097E-004	-5.107008042663779E-004	2.407993766537194E+006	2.055649109858896E+006	1.389821890345679E-001	0.000000000000000E+000	1.389821890345679E-001	0.0000000E+000	1.000000000000000E+000	4.0534978E+000	0.0000000E+000
3	0	0	0	1	1	5	14	1.000447974726558E+002	0.0000000E+000	4.0533991E+000	0.0000000E+000	0.000000000000000E+000	-8.500356462266710E-005	2.148849203798347E-004	-1.389821890345679E-001	3	-7.9436199E-005	0.0000000E+000	6.177202804371097E-004	-5.107008042663779E-004	2.407993766537194E+006	2.055649109858896E+006	1.389821890345679E-001	0.000000000000000E+000	1.389821890345679E-001	1.0003140E+002	1.000000000000000E+000	4.0534787E+000	0.0000000E+000