EC-Lab ASCII FILE
Nb header lines : 3                           
mode	error	time/s	Ewe/V	Ece/V	Ewe-Ece/V	
3	1	0.000000000000000E+000	2.6433134E-001	7.4292058E-001	-4.7858924E-001
3	0	4.999999873689376E-001	2.6443443E-001	7.4295497E-001	-4.7852054E-001
3	0	9.999999747378752E-001	2.6443446E-001	7.4288630E-001	-4.7845185E-001
3	0	1.499999962106813E+000	2.6433134E-001	7.4285191E-001	-4.7852057E-001
3	0	1.999999949475750E+000	2.6422825E-001	7.4292058E-001	-4.7869232E-001
3	0	2.499999936844688E+000	2.6350653E-001	7.4292058E-001	-4.7941405E-001
3	0	2.999999924213625E+000	2.6288792E-001	7.4298924E-001	-4.8010132E-001
3	0	3.499999911582563E+000	2.6433131E-001	7.4326408E-001	-4.7893277E-001
3	0	3.999999898951501E+000	2.6299104E-001	7.4288630E-001	-4.7989526E-001
3	0	4.499999886320438E+000	2.6402202E-001	7.4326408E-001	-4.7924206E-001
3	0	4.999999873689376E+000	2.6381582E-001	7.4319541E-001	-4.7937959E-001
3	0	5.499999861058313E+000	2.6381582E-001	7.4333280E-001	-4.7951698E-001
3	0	5.999999848427251E+000	2.6412514E-001	7.4333280E-001	-4.7920766E-001
3	0	6.499999835796189E+000	2.6402202E-001	7.4347025E-001	-4.7944823E-001
3	0	6.999999823165126E+000	2.6474375E-001	7.4353892E-001	-4.7879517E-001
3	0	7.499999810534064E+000	2.6340345E-001	7.4292058E-001	-4.7951713E-001
3	0	7.999999797903001E+000	2.6402205E-001	7.4312675E-001	-4.7910470E-001
3	0	8.499999785271939E+000	2.6412514E-001	7.4309236E-001	-4.7896722E-001
3	0	8.999999772640876E+000	2.6381585E-001	7.4360758E-001	-4.7979173E-001
3	0	9.499999760009814E+000	2.6433131E-001	7.4340153E-001	-4.7907022E-001
3	0	9.999999747378752E+000	2.6515612E-001	7.4353892E-001	-4.7838280E-001
3	0	1.049999973474769E+001	2.6350653E-001	7.4350452E-001	-4.7999799E-001
3	0	1.099999972211663E+001	2.6299104E-001	7.4343586E-001	-4.8044482E-001
3	0	1.149999970948556E+001	2.6422822E-001	7.4350452E-001	-4.7927630E-001
3	0	1.199999969685450E+001	2.6381585E-001	7.4322981E-001	-4.7941396E-001
3	0	1.249999968422344E+001	2.6288792E-001	7.4367630E-001	-4.8078838E-001
3	0	1.299999967159238E+001	2.6422825E-001	7.4401981E-001	-4.7979155E-001
3	0	1.349999965896131E+001	2.6402205E-001	7.4357331E-001	-4.7955126E-001
3	0	1.399999964633025E+001	2.6268175E-001	7.4357331E-001	-4.8089156E-001
3	0	1.449999963369919E+001	2.6360965E-001	7.4367630E-001	-4.8006666E-001
3	0	1.499999962106813E+001	2.6453754E-001	7.4329847E-001	-4.7876093E-001
3	0	1.549999960843707E+001	2.6299104E-001	7.4377936E-001	-4.8078832E-001
3	0	1.599999959580600E+001	2.6278484E-001	7.4371070E-001	-4.8092586E-001
3	0	1.649999958317494E+001	2.6371273E-001	7.4374509E-001	-4.8003235E-001
3	0	1.699999957054388E+001	2.6309416E-001	7.4381375E-001	-4.8071960E-001
3	0	1.749999955791282E+001	2.6330036E-001	7.4388242E-001	-4.8058206E-001
3	0	1.799999954528175E+001	2.6340345E-001	7.4374509E-001	-4.8034164E-001
3	0	1.849999953265069E+001	2.6402205E-001	7.4415725E-001	-4.8013520E-001
3	0	1.899999952001963E+001	2.6278484E-001	7.4401981E-001	-4.8123497E-001
3	0	1.949999950738857E+001	2.6371273E-001	7.4395114E-001	-4.8023841E-001
3	0	1.999999949475750E+001	2.6340345E-001	7.4360758E-001	-4.8020414E-001
3	0	2.049999948212644E+001	2.6350653E-001	7.4374509E-001	-4.8023856E-001
3	0	2.099999946949538E+001	2.6381585E-001	7.4401981E-001	-4.8020396E-001
3	0	2.149999945686432E+001	2.6360962E-001	7.4350452E-001	-4.7989491E-001
3	0	2.199999944423325E+001	2.6443443E-001	7.4391681E-001	-4.7948238E-001
3	0	2.249999943160219E+001	2.6319721E-001	7.4408859E-001	-4.8089138E-001
3	0	2.299999941897113E+001	2.6340345E-001	7.4374509E-001	-4.8034164E-001
3	0	2.349999940634007E+001	2.6319724E-001	7.4395114E-001	-4.8075390E-001
3	0	2.399999939370900E+001	2.6299104E-001	7.4401981E-001	-4.8102877E-001
3	0	2.449999938107794E+001	2.6360965E-001	7.4429464E-001	-4.8068500E-001
3	0	2.499999936844688E+001	2.6206315E-001	7.4377936E-001	-4.8171622E-001
3	0	2.549999935581582E+001	2.6268175E-001	7.4419159E-001	-4.8150983E-001
3	0	2.599999934318475E+001	2.6319724E-001	7.4415725E-001	-4.8096001E-001
3	0	2.649999933055369E+001	2.6309413E-001	7.4419159E-001	-4.8109746E-001
3	0	2.699999931792263E+001	2.6216623E-001	7.4415725E-001	-4.8199102E-001
3	0	2.749999930529157E+001	2.6288795E-001	7.4419159E-001	-4.8130363E-001
3	0	2.799999929266050E+001	2.6278484E-001	7.4419159E-001	-4.8140675E-001
3	0	2.849999928002944E+001	2.6247555E-001	7.4426031E-001	-4.8178476E-001
3	0	2.899999926739838E+001	2.6309413E-001	7.4439770E-001	-4.8130357E-001
3	0	2.949999925476732E+001	2.6257864E-001	7.4439770E-001	-4.8181906E-001
3	0	2.999979924214131E+001	2.6340345E-001	7.4432904E-001	-4.8092559E-001