<?xml version="1.0" encoding="UTF-8"?>
<xrdMeasurements xmlns="http://www.xrdml.com/XRDMeasurement/1.6" xmlns:xsi="http://www.w3.org/2001/XMLSchema-instance" xsi:schemaLocation="http://www.xrdml.com/XRDMeasurement/1.6 http://www.xrdml.com/XRDMeasurement/1.6/XRDMeasurement.xsd" status="Completed">
	<comment>
		<entry>Configuration=Spinner PW3064, Owner=User-1, Creation date=1/20/2009 6:26:00 PM</entry>
		<entry>Goniometer=PW3050/60 (Theta/2Theta); Minimum step size 2Theta:0.001; Minimum step size Omega:0.001</entry>
		<entry>Sample stage=Spinner PW3064</entry>
		<entry>Diffractometer system=XPERT-PRO</entry>
		<entry>Measurement program=C:\PANalytical\Data Collector\Programs\501\rea\5to80_30min.xrdmp, Identifier={1067610D-F984-4C31-9EB0-5028D5C06925}</entry>
		<entry>Fine Calibration Offset for 2Theta = -0.021 deg</entry>
	</comment>
	<sample type="To be analyzed">
		<id></id>
		<name></name>
		<preparedBy></preparedBy>
	</sample>
	<xrdMeasurement measurementType="Repeated scan" status="Completed" sampleMode="Reflection">
		<comment>
			<entry>10°-100°, 3h</entry>
			<entry>PHD Lower Level = 6.76 (keV), PHD Upper Level = 12.80 (keV)</entry>
		</comment>
		<usedWavelength intended="K-Alpha 1">
			<kAlpha1 unit="Angstrom">1.5405980</kAlpha1>
			<kAlpha2 unit="Angstrom">1.5444260</kAlpha2>
			<kBeta unit="Angstrom">1.3922500</kBeta>
			<ratioKAlpha2KAlpha1>0.0000</ratioKAlpha2KAlpha1>
		</usedWavelength>
		<incidentBeamPath>
			<radius unit="mm">240.00</radius>
			<xRayTube id="1010048" name="Empyrean Cu LFF HR (9430 033 7310x) DK422728">
				<tension unit="kV">45.0</tension>
				<current unit="mA">40.0</current>
				<anodeMaterial>Cu</anodeMaterial>
				<focus type="Line">
					<length unit="mm">12.0</length>
					<width unit="mm">0.4</width>
					<takeOffAngle unit="deg">6.0</takeOffAngle>
				</focus>
			</xRayTube>
			<monochromator id="23010013" name="Inc. beam Johansson 1xGe111 Cu/Co" hybrid="false">
				<crystal type="Symmetric" shape="Curved">Ge</crystal>
				<numberOfReflections>1</numberOfReflections>
				<hkl>
					<h>1</h>
					<k>1</k>
					<l>1</l>
				</hkl>
			</monochromator>
			<mask id="22080002" name="Fixed incident beam mask 10 mm">
				<width unit="mm">6.60</width>
			</mask>
			<antiScatterSlit id="22010003" name="Fixed slit 1°" xsi:type="fixedAntiScatterSlitType">
				<height unit="mm">1.52</height>
			</antiScatterSlit>
			<divergenceSlit id="22010012" name="Programmable divergence slit" xsi:type="fixedDivergenceSlitType">
				<distanceToSample unit="mm">140.00</distanceToSample>
				<angle unit="deg">1</angle>
			</divergenceSlit>
		</incidentBeamPath>
		<sampleMovement xsi:type="spinningSampleMovementType">
			<spinnerRevolutionTime unit="seconds">1.0</spinnerRevolutionTime>
		</sampleMovement>
		<diffractedBeamPath>
			<radius unit="mm">240.00</radius>
			<antiScatterSlit id="22060009" name="Programmable anti-scatter slit" xsi:type="fixedAntiScatterSlitType">
				<angle unit="deg">1</angle>
			</antiScatterSlit>
			<sollerSlit id="21020003" name="Large Soller slits 0.04 rad.">
				<opening unit="rad">0.0400</opening>
			</sollerSlit>
			<detector id="7010013" name="X'Celerator detector" xsi:type="rtmsDetectorType">
				<phd>
					<lowerLevel unit="%">42.0</lowerLevel>
					<upperLevel unit="%">79.5</upperLevel>
				</phd>
				<mode>Scanning</mode>
				<activeLength unit="deg">2.122</activeLength>
			</detector>
		</diffractedBeamPath>
		<scan appendNumber="0" mode="Continuous" scanAxis="Gonio" status="Completed">
			<header>
				<startTimeStamp>2021-05-20T15:55:51+02:00</startTimeStamp>
				<endTimeStamp>2021-05-20T16:26:25+02:00</endTimeStamp>
				<author>
					<name>User</name>
				</author>
				<source>
					<applicationSoftware version="5.4">Data Collector</applicationSoftware>
					<instrumentControlSoftware version="2.2F 20161117">XPERT-PRO</instrumentControlSoftware>
					<instrumentID>0000000011049883</instrumentID>
				</source>
			</header>
			<dataPoints>
				<positions axis="2Theta" unit="deg">
					<startPosition>5.00835563</startPosition>
					<endPosition>80.00853080</endPosition>
				</positions>
				<positions axis="Omega" unit="deg">
					<startPosition>2.50417782</startPosition>
					<endPosition>40.00426540</endPosition>
				</positions>
				<commonCountingTime unit="seconds">50.165</commonCountingTime>
				<intensities unit="counts">1719 1766 1688 1719 1648 1717 1781 1708 1714 1654 1679 1626 1676 1674 1602 1700 1594 1578 1604 1583 1634 1630 1596 1583 1638 1568 1606 1561 1555 1500 1588 1624 1566 1526 1574 1502 1592 1514 1590 1611 1569 1518 1447 1515 1517 1561 1490 1488 1473 1461 1420 1497 1486 1444 1455 1476 1464 1449 1405 1467 1465 1422 1404 1368 1395 1411 1346 1439 1404 1350 1373 1376 1377 1375 1322 1407 1357 1394 1348 1294 1289 1314 1364 1332 1227 1344 1312 1325 1256 1265 1323 1392 1239 1334 1299 1268 1306 1345 1286 1244 1318 1258 1219 1229 1238 1261 1229 1247 1244 1253 1304 1292 1232 1177 1209 1210 1251 1216 1259 1222 1215 1221 1171 1207 1218 1152 1214 1226 1171 1194 1190 1151 1159 1168 1181 1188 1185 1115 1145 1151 1155 1129 1216 1166 1148 1169 1170 1157 1064 1127 1151 1100 1140 1120 1187 1146 1207 1108 1140 1109 1044 1062 1082 1143 1081 1096 1142 1079 1133 1090 1107 1056 1096 1147 1114 1088 1140 1115 1039 1096 1098 1083 1074 1012 1062 1100 1082 1048 1053 1032 1068 1085 1094 1076 1128 1007 1064 1049 997 958 942 1018 1035 1030 1074 979 1053 974 922 1019 958 1018 994 1049 961 1004 982 976 1016 959 1000 945 978 921 980 945 1000 925 987 971 924 952 967 984 923 933 955 1003 942 905 961 951 950 978 934 902 1000 935 928 921 916 902 883 936 935 969 903 912 883 896 920 826 998 928 871 857 895 954 916 882 883 839 899 862 854 902 875 891 862 888 839 934 843 881 866 894 853 854 831 875 847 861 826 869 853 756 871 818 869 876 813 833 891 817 852 811 873 821 793 778 808 801 799 853 826 846 795 781 829 788 810 732 869 802 760 808 740 792 781 769 798 819 775 796 834 778 739 776 782 738 800 870 838 740 803 772 763 794 760 747 738 752 794 797 722 777 739 746 726 720 820 753 740 721 694 773 787 721 778 748 733 718 722 734 702 749 702 756 774 723 680 686 713 708 738 696 696 662 764 708 681 722 688 723 782 729 662 705 726 678 742 715 643 675 720 713 722 708 737 658 733 656 718 684 672 640 689 681 691 691 746 683 724 732 673 630 680 674 709 635 688 658 626 648 624 718 679 658 672 730 658 665 673 683 635 648 579 643 714 704 715 658 669 723 707 662 646 681 627 681 640 721 695 698 700 678 636 643 652 661 643 626 664 626 669 620 676 608 630 611 615 674 630 704 652 625 650 608 656 643 648 613 638 673 630 611 660 646 580 620 612 616 657 644 624 615 619 636 628 666 643 640 608 631 635 650 621 681 683 691 723 689 703 734 726 753 830 802 799 774 876 887 917 1007 1026 1106 1082 1234 1251 1358 1417 1584 1759 1943 2067 2176 2459 2584 2651 2713 2776 2599 2276 2053 1781 1734 1602 1315 1352 1351 1289 1440 1477 1610 1543 1659 1736 1749 1663 1544 1324 1268 1135 974 859 726 753 644 640 600 612 572 597 598 584 570 589 599 571 573 621 584 620 616 556 562 591 615 559 561 597 576 590 558 601 612 553 602 611 563 570 578 574 571 551 615 559 631 583 597 599 565 631 631 663 670 655 714 744 767 837 920 926 1006 1028 1127 1144 1227 1367 1399 1638 1873 2021 2187 2415 2727 3093 3326 3774 4338 4856 5350 5772 6128 6566 6460 5982 5417 4666 3974 3339 2596 2041 1599 1223 978 844 710 662 661 581 608 575 585 540 552 584 525 557 525 532 508 540 506 527 565 530 521 503 551 502 517 522 489 510 522 516 582 526 515 511 541 587 527 563 540 560 559 552 523 567 597 567 599 637 635 607 686 693 713 777 764 808 843 885 903 832 784 719 704 640 637 580 536 540 507 520 498 512 448 503 510 521 538 485 491 462 452 493 458 487 504 501 495 473 465 497 500 541 481 516 476 500 466 473 491 498 460 443 503 427 486 484 471 438 474 462 479 428 443 462 480 449 461 474 503 459 458 410 470 470 483 475 472 533 505 473 470 446 435 487 489 489 446 462 477 482 502 426 464 483 447 496 448 426 490 470 461 484 482 493 482 501 493 501 518 461 491 523 506 515 505 564 526 560 557 602 589 711 770 703 758 771 773 763 727 695 628 638 534 504 522 492 485 472 515 472 439 480 468 444 418 450 459 465 443 449 437 478 462 428 421 432 439 455 478 441 454 394 443 425 415 429 459 495 448 425 498 431 415 427 450 441 464 529 483 528 464 501 482 499 513 579 583 612 681 706 755 821 883 961 1030 1126 1288 1342 1445 1554 1653 1823 1893 1887 1767 1571 1488 1259 1167 974 855 734 654 538 504 499 451 468 444 491 432 432 433 411 433 388 427 448 413 388 439 418 459 428 463 443 433 435 462 430 455 435 415 446 447 443 449 433 436 452 436 411 478 478 428 450 397 455 435 388 405 456 398 399 424 390 397 416 457 433 454 417 427 404 398 410 454 405 423 427 436 424 421 431 450 429 414 466 436 457 484 447 489 474 503 473 482 502 465 477 486 444 526 440 463 454 441 488 467 504 538 548 567 559 612 653 683 705 772 795 798 801 725 720 669 653 620 621 539 460 516 442 450 411 463 398 426 441 402 431 433 407 433 425 448 412 441 426 416 433 414 430 410 439 418 382 411 434 421 412 442 430 407 415 401 392 402 438 403 392 426 425 454 415 411 416 417 342 462 418 428 423 438 426 461 408 431 439 413 425 414 413 453 402 438 452 446 423 472 446 479 479 483 510 516 486 559 579 663 676 691 704 764 760 756 768 712 704 665 631 583 503 524 477 453 467 462 417 465 436 439 413 452 416 454 440 463 436 426 437 512 462 457 447 476 481 492 560 573 625 658 700 808 948 1001 1188 1284 1490 1642 1820 2041 2339 2481 2872 3020 3490 3419 3529 3569 3359 3222 2752 2554 2261 2039 1766 1611 1540 1438 1476 1362 1404 1262 1301 1358 1280 1222 1088 969 936 884 748 719 622 563 555 588 551 537 564 605 575 586 714 744 818 908 861 994 1017 1048 1156 1237 1163 1200 1190 1028 996 821 747 682 603 566 515 499 483 466 477 489 460 493 470 415 465 427 453 472 459 412 462 457 470 455 458 477 507 527 493 523 571 512 529 585 514 528 552 495 510 556 450 507 455 483 408 435 477 430 428 513 462 516 512 486 504 520 468 534 525 514 584 620 584 585 646 665 743 751 798 796 781 817 847 901 946 915 927 963 966 944 1041 944 944 899 838 889 775 772 811 730 687 666 632 653 627 613 561 468 509 508 508 513 487 488 483 509 475 478 467 478 424 490 464 452 481 465 468 481 515 554 526 493 536 530 534 530 531 564 562 527 542 510 538 531 477 481 516 485 497 444 455 503 473 499 474 465 493 483 484 460 492 525 483 472 465 446 517 490 498 539 511 505 541 526 574 574 573 617 690 685 787 831 876 1008 1178 1338 1528 1684 1942 2305 2661 3035 3549 3925 4478 4856 5558 5882 6436 7000 7226 7779 8113 8547 8760 9108 9234 9859 9932 10041 10340 10443 10718 10355 10178 9601 9114 8016 7178 6051 5182 4582 3739 3317 2832 2712 2454 2298 2198 2198 2189 2048 2045 1762 1710 1534 1368 1417 1288 1225 1223 1254 1292 1381 1372 1402 1440 1410 1454 1472 1334 1427 1308 1195 1090 963 846 832 723 720 662 670 657 596 658 660 713 753 764 793 776 780 831 808 783 702 712 648 637 673 602 556 653 597 602 601 661 659 601 700 676 673 624 675 615 678 683 646 669 674 680 723 658 717 705 744 727 788 825 847 860 883 961 958 1032 1125 1201 1273 1312 1405 1494 1588 1759 1908 2049 2186 2358 2618 2762 3140 3334 3681 3842 4285 4605 4831 5165 5510 5798 6295 6440 6787 6986 7257 7457 7436 7375 7238 7030 6829 6530 6248 5765 5585 5051 4823 4295 3893 3399 3192 2840 2554 2265 1975 1769 1641 1546 1293 1219 1165 1005 949 933 974 848 764 785 752 736 708 673 672 600 577 598 623 574 558 565 570 569 502 525 535 509 507 526 504 539 567 529 546 542 604 611 585 588 651 671 619 730 704 738 702 769 731 694 606 595 541 548 534 497 500 478 465 500 476 458 504 484 462 504 514 487 497 524 506 542 475 536 478 505 498 528 437 466 465 448 502 481 490 476 463 427 426 416 418 449 447 416 392 427 409 454 441 438 403 406 444 419 448 407 423 402 418 397 424 440 416 378 424 426 396 428 392 397 443 390 392 427 400 391 427 410 418 360 436 423 430 430 386 408 412 427 371 416 427 444 418 391 472 422 426 428 388 406 399 375 391 404 385 425 378 413 438 413 416 411 417 414 404 418 375 412 448 388 448 401 432 418 443 461 446 429 439 427 476 501 479 484 502 470 501 522 465 507 498 532 480 567 556 551 529 525 497 458 451 442 409 394 431 399 398 402 427 382 390 416 421 433 413 387 441 430 453 431 454 451 457 430 467 497 474 453 471 499 457 437 474 440 412 404 428 414 418 408 376 401 412 363 356 410 383 414 387 385 398 405 441 412 437 379 398 383 443 415 343 407 394 401 387 413 398 396 406 396 404 400 410 413 397 393 407 406 428 438 416 441 450 455 455 437 493 515 531 553 565 551 512 582 580 526 529 551 474 475 467 504 492 488 535 463 511 552 501 511 530 501 441 460 436 418 415 417 392 421 419 386 415 382 384 341 391 384 387 378 381 391 382 404 378 374 354 398 344 409 378 402 387 374 373 340 361 347 367 371 365 385 384 361 416 408 408 366 398 373 421 402 403 407 405 421 456 433 443 394 408 416 371 396 412 433 402 424 441 397 419 436 390 422 423 414 407 407 419 443 426 457 468 501 535 550 575 569 556 646 693 758 723 769 687 761 763 744 726 607 562 565 553 502 448 436 446 464 452 455 438 462 451 451 484 497 522 485 544 538 586 542 611 577 610 598 599 597 639 636 617 673 633 691 677 595 658 615 591 615 558 553 508 477 496 440 432 452 426 414 409 425 417 374 414 388 409 392 410 377 376 443 417 412 398 411 476 411 431 436 443 442 512 506 479 513 488 521 480 500 504 482 549 488 496 446 473 440 437 407 432 436 386 415 365 377 431 412 399 402 406 399 412 406 429 417 407 452 432 424 437 435 479 474 452 465 452 466 515 454 531 496 489 510 510 501 526 477 493 441 468 457 479 467 481 503 509 495 489 436 470 503 491 505 492 553 549 562 620 635 682 729 754 842 948 970 1145 1305 1319 1494 1537 1668 1865 2019 2135 2096 2248 2214 2306 2287 2427 2408 2502 2528 2631 2785 2913 3091 3379 3599 3830 4278 4677 4671 5109 5292 5625 5664 5682 5754 5503 5106 4829 4380 3848 3319 2773 2512 2149 1754 1548 1257 1133 1062 891 850 795 713 676 621 578 570 536 558 502 534 495 538 487 517 491 501 472 483 510 533 497 511 491 533 481 514 541 491 480 490 490 447 522 450 492 447 434 470 489 453 490 455 486 454 475 452 462 463 454 481 506 465 524 484 475 497 493 443 479 472 489 499 530 542 487 532 500 559 536 542 578 553 561 562 576 562 515 564 564 529 507 495 511 531 501 545 557 582 597 544 583 537 598 549 552 575 604 633 704 622 711 749 760 812 783 915 853 936 965 984 1048 1022 1042 1037 998 985 1007 871 799 801 841 778 742 772 798 765 800 776 832 859 876 897 810 898 993 926 1028 994 1051 1077 1190 1147 1193 1283 1298 1289 1354 1456 1493 1636 1611 1594 1665 1737 1834 1885 1966 2067 2154 2223 2364 2341 2514 2629 2880 2978 3000 3169 3187 3225 3328 3471 3597 3635 3835 3642 3839 3794 3725 3758 3746 3689 3507 3514 3414 3349 3177 3121 2893 2805 2687 2627 2316 2331 2111 2014 1856 1792 1707 1542 1450 1351 1270 1252 1143 1074 997 949 952 911 837 821 845 782 769 772 706 734 663 683 696 695 657 708 648 655 633 659 652 670 616 641 602 569 574 569 570 547 572 556 544 549 542 499 468 527 522 515 534 489 508 507 523 514 471 506 540 504 538 558 487 516 542 535 512 509 536 503 525 488 478 521 514 489 485 484 473 451 459 418 467 438 432 461 468 396 435 476 461 415 473 458 430 429 435 450 470 435 428 441 426 487 451 461 418 480 490 473 465 515 466 510 483 541 518 536 522 535 548 511 525 498 517 518 480 508 459 463 503 460 573 558 523 583 539 529 548 569 502 522 485 480 491 488 428 428 458 461 421 396 413 449 472 424 424 451 451 475 488 515 444 463 450 453 453 451 493 429 465 460 505 427 452 425 437 458 440 457 442 458 434 393 470 450 447 403 405 487 491 435 474 470 518 452 505 470 472 475 528 551 542 589 566 604 673 656 740 751 774 823 846 870 906 959 960 968 935 909 891 836 893 843 820 845 827 888 866 907 941 1007 994 1069 1093 1084 1166 1174 1294 1268 1360 1373 1382 1302 1364 1263 1292 1184 1046 1030 898 834 747 723 708 622 537 542 521 493 488 533 458 495 456 461 460 468 479 460 444 442 455 418 446 435 433 387 439 425 448 443 422 407 407 421 402 438 427 429 456 436 477 425 433 406 431 447 463 431 443 455 448 436 398 483 497 480 463 443 544 501 504 486 486 487 484 453 440 432 438 427 467 472 444 429 409 423 490 500 457 457 482 511 478 528 466 536 504 520 548 550 542 626 662 687 690 705 709 781 794 842 903 832 871 856 868 881 818 803 881 863 831 881 855 873 900 905 935 955 1029 1125 1147 1194 1320 1387 1392 1493 1521 1662 1671 1823 1765 1901 1844 1877 1787 1742 1586 1445 1426 1237 1184 1083 977 855 828 767 734 733 603 628 563 576 551 554 513 460 479 498 418 413 396 479 425 440 466 414 404 451 435 416 431 431 479 441 428 404 439 409 407 422 402 439 380 438 437 432 431 423 433 417 404 450 480 467 454 474 477 452 472 439 442 491 466 428 489 486 467 447 471 480 447 447 448 459 479 473 507 458 456 471 501 441 468 468 479 409 463 480 475 454 449 475 450 528 495 522 514 482 471 506 510 457 463 505 530 467 473 490 528 482 516 487 497 509 534 500 456 488 444 410 449 440 430 384 400 408 410 396 410 385 415 373 364 324 372 378 359 344 357 339 364 359 347 411 352 327 391 390 378 361 380 352 375 388 406 400 454 367 406 394 402 385 396 412 390 368 428 374 379 383 343 327 328 343 357 393 387 392 374 390 400 406 405 411 424 418 416 463 411 474 437 443 508 415 462 441 449 462 453 497 478 453 465 454 491 462 521 569 512 592 530 624 627 632 670 632 649 658 708 678 788 787 832 787 867 857 895 910 880 918 948 963 943 959 987 1030 965 1102 1026 1056 1076 1084 1141 1100 1032 1044 1091 1079 1052 1040 1019 994 1009 945 957 896 878 850 793 747 748 682 694 673 613 606 573 581 547 576 536 463 463 446 486 449 401 438 417 435 410 404 396 324 363 380 342 401 369 366 347 349 357 360 318 324 338 340 317 358 320 329 289 284 355 310 323 312 342 304 330 309 310 326 312 312 314 322 307 328 306 312 350 297 314 316 300 299 322 294 293 280 299 304 252 281 285 290 311 273 323 288 293 309 298 289 300 298 302 333 291 267 297 282 295 307 318 289 266 278 274 285 305 273 277 275 280 276 284 303 269 300 294 262 277 291 293 301 291 254 285 318 315 285 288 294 289 309 309 262 297 272 307 309 294 299 265 263 324 275 309 322 265 277 291 276 255 308 270 277 285 282 295 257 289 259 260 301 294 320 308 299 294 291 273 279 307 315 277 303 277 306 292 297 303 280 304 304 332 292 343 327 315 329 324 264 283 334 307 323 304 304 310 285 303 311 305 267 299 288 273 268 287 294 291 269 344 327 319 315 343 322 340 348 361 341 329 344 358 353 372 364 398 364 377 423 416 407 402 381 404 421 372 392 406 410 453 415 440 417 451 461 413 497 460 472 470 588 527 560 610 606 629 616 639 652 725 706 670 700 706 682 621 638 571 544 479 450 436 442 405 399 355 372 340 329 367 306 347 285 307 318 289 313 293 292 302 313 328 267 294 273 289 275 273 281 286 287 286 330 326 330 263 298 269 308 326 256 300 293 307 308 305 311 284 287 313 289 264 261 260 278 261 272 266 272 266 244 298 274 297 307 250 266 275 255 261 281 272 281 291 287 288 286 298 283 306 322 274 318 286 256 293 310 289 279 280 273 291 301 259 299 310 309 285 300 290 295 278 257 265 293 255 277 297 282 289 255 295 309 272 279 261 279 304 278 245 277 269 291 289 297 252 300 263 287 281 273 262 291 267 289 279 274 284 270 289 279 277 297 248 318 301 300 273 311 306 302 295 297 307 287 317 308 301 287 285 295 303 315 304 306 281 338 295 301 329 300 317 274 311 293 290 298 290 308 279 305 273 283 286 324 289 288 263 256 293 283 313 278 310 266 299 285 276 291 305 295 274 278 279 286 325 294 308 285 274 295 281 314 294 335 291 283 324 266 282 289 274 291 299 300 270 352 318 308 300 318 300 326 288 331 288 315 361 317 318 335 344 345 353 365 303 363 328 317 354 348 361 330 355 325 349 381 375 339 365 367 378 426 340 413 386 386 404 432 394 423 437 452 455 487 474 478 498 464 510 542 472 554 535 538 546 540 541 566 550 523 546 521 553 571 524 571 581 573 526 572 596 545 537 621 560 507 532 525 527 470 482 560 507 547 513 488 508 513 496 495 451 479 434 481 451 440 466 454 429 456 430 460 425 393 440 415 427 446 451 414 381 423 421 412 404 428 406 411 456 422 480 458 452 457 454 471 481 480 462 481 430 429 436 411 409 386 415 390 368 374 378 379 350 326 340 350 332 332 300 344 300 301 287 312 338 298 315 284 298 277 324 323 330 339 312 323 304 303 301 322 308 325 316 322 344 313 320 335 313 328 311 325 356 329 364 367 355 401 360 368 373 393 387 443 448 485 482 490 507 496 507 567 534 570 517 517 550 478 514 542 520 523 492 520 491 487 475 483 533 468 492 490 512 571 541 602 624 622 648 730 789 738 822 844 856 918 1026 1117 1149 1201 1219 1244 1239 1237 1339 1257 1208 1204 1173 1098 963 893 881 781 709 594 619 567 525 524 456 443 466 386 454 426 425 374 375 378 356 361 334 340 331 329 327 299 322 323 316 331 323 349 299 279 302 324 351 322 343 322 336 307 311 315 337 312 323 323 317 307 314 330 325 323 328 337 323 347 316 322 308 294 302 322 292 304 298 297 295 325 279 307 335 288 274 312 304 287 295 292 303 304 294 317 316 329 306 287 344 330 294 333 313 300 300 309 326 306 274 334 312 300 328 305 304 311 312 295 320 322 317 323 344 297 314 295 274 314 307 298 288 303 314 290 290 303 311 316 322 297 303 311 303 337 318 335 292 305 310 297 348 336 295 311 332 322 305 318 334 308 295 335 311 288 320 320 322 300 333 291 300 325 322 341 324 319 342 297 354 336 330 319 365 364 345 401 371 365 351 369 352 364 382 333 344 354 315 304 362 313 310 337 312 311 292 311 330 333 338 335 334 334 343 350 347 348 339 306 335 348 367 325 353 356 378 311 324 338 357 337 334 372 360 319 357 363 311 332 366 338 363 317 354 345 338 337 325 343 334 339 339 364 314 367 324 338 312 318 357 327 355 364 343 343 355 361 359 335 369 366 330 340 314 355 347 347 359 374 371 363 373 330 363 428 359 382 351 350 375 406 373 373 431 410 425 411 387 406 446 406 408 396 425 438 428 405 426 436 464 482 460 467 481 453 505 507 517 511 518 513 597 537 572 529 583 594 616 661 695 676 683 677 749 727 742 717 816 768 737 768 803 809 810 811 790 908 826 841 839 830 822 794 839 876 808 833 828 823 887 856 821 863 869 821 787 797 834 821 804 831 798 801 722 714 685 728 703 699 686 709 696 658 651 646 605 570 597 570 547 524 536 528 530 504 468 478 516 520 488 515 497 452 458 501 490 507 471 476 513 525 484 530 499 490 517 429 526 466 470 456 513 468 457 471 423 463 402 418 467 471 451 424 441 488 462 424 450 467 500 442 503 552 545 565 541 595 613 588 657 659 675 730 740 758 763 831 887 893 903 913 926 864 857 884 852 769 753 704 659 601 571 558 578 575 484 450 462 446 460 434 405 391 379 399 389 410 380 384 379 353 361 361 362 355 352 345 331 312 332 348 344 298 311 313 345 334 305 330 338 341 350 328 360 369 381 350 384 333 338 368 365 368 344 329 374 308 355 360 351 343 348 292 315 369 327 351 340 309 330 347 303 313 308 318 305 323 315 310 354 305 308 303 291 313 331 323 310 353 349 317 329 364 328 334 352 334 336 317 352 322 351 345 332 351 282 316 357 279 306 305 307 316 298 323 329 326 310 331 308 310 343 337 322 312 318 316 297 293 313 316 332 305 331 305 301 320 323 307 319 325 307 312 313 297 320 298 292 307 333 288 348 302 328 313 333 335 298 312 293 326 348 292 340 340 290 301 306 291 319 278 311 305 297 331 293 312 273 303 309 322 293 364 310 280 317 305 328 308 273 306 332 299 275 285 310 320 319 347 293 301 299 326 309 306 337 317 317 275 299 272 342 306 283 311 308 297 263 324 283 288</intensities>
			</dataPoints>
		</scan>
	</xrdMeasurement>
</xrdMeasurements>
