EC-Lab ASCII FILE
Nb header lines : 72                          

Chronoamperometry / Chronocoulometry

Run on channel : 1 (SN 15265)
User : 
Electrode connection : standard
Potential control : Ewe
Ewe ctrl range : min = 3,00 V, max = 4,50 V
Ewe,I filtering : 50 kHz
Safety Limits :
	Do not start on E overload
Channel : Floating
Acquisition started on : 01/10/2024 11:02:29.886
Technique started on : 01/10/2024 11:02:50.537
Loaded Setting File :  NONE
Saved on :
	File : ***.mpr
	Directory : C:\Users\***\
	Host : 169.254.189.50
Device : SP-300 (SN 1854)
Address : 169.254.189.65
EC-Lab for windows v11.50 (software)
Internet server v11.50 (firmware)
Command interpretor v11.50 (firmware)
Electrode material : 
Initial state : 
Electrolyte : 
Comments : 
Cable : standard
Electrode surface area : 0,000 cm²
Characteristic mass : 0,001 g
Equivalent Weight : 0,000 g/eq.
Density : 0,000 g/cm3
Volume (V) : 0,001 cm³
Record Power
Record EIS quality indicators
Cycle Definition : Charge/Discharge alternance
Ei (V)              0,000               
vs.                 Emeas               
ti (h:m:s)          0:00:10,0000        
Imax                pass                
unit Imax           mA                  
Imin                pass                
unit Imin           mA                  
dQM                 0,000               
unit dQM            mA.h                
record              <I>                 
dI                  5,000               
unit dI             µA                  
dQ                  0,000               
unit dQ             mA.h                
dt (s)              0,1000              
dta (s)             0,5000              
E range min (V)     3,000               
E range max (V)     4,500               
I Range             Auto                
I Range min         Unset               
I Range max         Unset               
I Range init        Unset               
Bandwidth           8                   
goto Ns'            0                   
nc cycles           0                   

Number of loops : 4
Loop 0 from point number 0 to 19
Loop 1 from point number 20 to 39
Loop 2 from point number 40 to 59
Loop 3 from point number 60 to 79

mode	ox/red	error	control changes	Ns changes	counter inc.	Ns	time/s	control/V	Ewe/V	<I>/mA	dQ/C	(Q-Qo)/C	I Range	Q charge/discharge/mA.h	half cycle	P/W	Energy charge/W.h	Energy discharge/W.h	Capacitance charge/µF	Capacitance discharge/µF	step time/s	Q discharge/mA.h	Q charge/mA.h	Capacity/mA.h	Efficiency/%	cycle number	
2	1	0	1	0	0	0	2,065059947832196E+001	3,4236820E+000	3,4241872E+000	9,693702445496222E-003	4,5655652E-006	4,5655652E-006	42	1,268212606404429E-006	0	3,3193053E-005	4,342597157107582E-009	0,000000000000000E+000	0,000000000000000E+000	0,000000000000000E+000	2,065059947832196E+001	0,000000000000000E+000	1,268212606404429E-006	1,268212606404429E-006	0,0000000E+000	0,000000000000000E+000
2	1	0	1	0	0	0	2,115059946569090E+001	3,4236820E+000	3,4242139E+000	1,058848694004116E-002	9,8598093E-006	9,8598093E-006	42	2,738835870959318E-006	0	3,6257243E-005	9,378326136465602E-009	0,000000000000000E+000	3,692414008577620E+005	0,000000000000000E+000	2,115059946569090E+001	0,000000000000000E+000	2,738835870959318E-006	2,738835870959318E-006	0,0000000E+000	0,000000000000000E+000
2	1	0	1	0	0	0	2,165059945305984E+001	3,4236820E+000	3,4242749E+000	1,132820712615533E-002	1,5370364E-005	1,5370364E-005	41	4,269545513151874E-006	0	3,8790895E-005	1,461989679244162E-008	0,000000000000000E+000	1,751847243651680E+005	0,000000000000000E+000	2,165059945305984E+001	0,000000000000000E+000	4,269545513151874E-006	4,269545513151874E-006	0,0000000E+000	0,000000000000000E+000
2	1	0	1	0	0	0	2,215059944042878E+001	3,4236820E+000	3,4242749E+000	1,133944434747100E-002	2,1040087E-005	2,1040087E-005	41	5,844468454259590E-006	0	3,8829377E-005	2,001286599918064E-008	0,000000000000000E+000	2,398057573262754E+005	0,000000000000000E+000	2,215059944042878E+001	0,000000000000000E+000	5,844468454259590E-006	5,844468454259590E-006	0,0000000E+000	0,000000000000000E+000
2	1	0	1	0	0	0	2,265059942779772E+001	3,4236820E+000	3,4242978E+000	1,137415095493197E-002	2,6727163E-005	2,6727163E-005	41	7,424211786903066E-006	0	3,8948481E-005	2,542237747083575E-008	0,000000000000000E+000	2,415988023723208E+005	0,000000000000000E+000	2,265059942779772E+001	0,000000000000000E+000	7,424211786903066E-006	7,424211786903066E-006	0,0000000E+000	0,000000000000000E+000
2	1	0	1	0	0	0	2,315059941516665E+001	3,4236820E+000	3,4243016E+000	1,139082042537629E-002	3,2422573E-005	3,2422573E-005	41	9,006270308459838E-006	0	3,9005605E-005	3,083982280669642E-008	0,000000000000000E+000	2,833127668489075E+005	0,000000000000000E+000	2,315059941516665E+001	0,000000000000000E+000	9,006270308459838E-006	9,006270308459838E-006	0,0000000E+000	0,000000000000000E+000
2	1	0	1	0	0	0	2,365059940253559E+001	3,4236820E+000	3,4242826E+000	1,139925232492387E-002	3,8122198E-005	3,8122198E-005	41	1,058949990109896E-005	0	3,9034261E-005	3,626124684938797E-008	0,000000000000000E+000	3,997402361386108E+005	0,000000000000000E+000	2,365059940253559E+001	0,000000000000000E+000	1,058949990109896E-005	1,058949990109896E-005	0,0000000E+000	0,000000000000000E+000
2	1	0	1	0	0	0	2,415059938990453E+001	3,4236820E+000	3,4243245E+000	1,139478269405662E-002	4,3819593E-005	4,3819593E-005	41	1,217210872802308E-005	0	3,9019433E-005	4,168061607116876E-008	0,000000000000000E+000	3,190845270398882E+005	0,000000000000000E+000	2,415059938990453E+001	0,000000000000000E+000	1,217210872802308E-005	1,217210872802308E-005	0,0000000E+000	0,000000000000000E+000
2	1	0	1	0	0	0	2,465059937727347E+001	3,4236820E+000	3,4243093E+000	1,138312999494373E-002	4,9511156E-005	4,9511156E-005	41	1,375309906491020E-005	0	3,8979357E-005	4,709441406760749E-008	0,000000000000000E+000	4,055953951430797E+005	0,000000000000000E+000	2,465059937727347E+001	0,000000000000000E+000	1,375309906491020E-005	1,375309906491020E-005	0,0000000E+000	0,000000000000000E+000
2	1	0	1	0	0	0	2,515059936464240E+001	3,4236820E+000	3,4243207E+000	1,139018662646413E-002	5,5206252E-005	5,5206252E-005	41	1,533506956711871E-005	0	3,9003651E-005	5,251159025024679E-008	0,000000000000000E+000	4,134853518791416E+005	0,000000000000000E+000	2,515059936464240E+001	0,000000000000000E+000	1,533506956711871E-005	1,533506956711871E-005	0,0000000E+000	0,000000000000000E+000
2	1	0	1	0	0	0	2,565059935201134E+001	3,4236820E+000	3,4243665E+000	1,137536564394831E-002	6,0893934E-005	6,0893934E-005	41	1,691498162809391E-005	0	3,8953422E-005	5,792178636625050E-008	0,000000000000000E+000	3,396378595339187E+005	0,000000000000000E+000	2,565059935201134E+001	0,000000000000000E+000	1,691498162809391E-005	1,691498162809391E-005	0,0000000E+000	0,000000000000000E+000
2	1	0	1	0	0	0	2,615059933938028E+001	3,4236820E+000	3,4242597E+000	1,134546023048459E-002	6,6566667E-005	6,6566667E-005	41	1,849074005325060E-005	0	3,8849801E-005	6,331759500971900E-008	0,000000000000000E+000	9,184237693615563E+005	0,000000000000000E+000	2,615059933938028E+001	0,000000000000000E+000	1,849074005325060E-005	1,849074005325060E-005	0,0000000E+000	0,000000000000000E+000
2	1	0	1	0	0	0	2,665059932674922E+001	3,4236820E+000	3,4243207E+000	1,124888668060302E-002	7,2191106E-005	7,2191106E-005	41	2,005308546529300E-005	0	3,8519796E-005	6,866756240730194E-008	0,000000000000000E+000	5,406990208677019E+005	0,000000000000000E+000	2,665059932674922E+001	0,000000000000000E+000	2,005308546529300E-005	2,005308546529300E-005	0,0000000E+000	0,000000000000000E+000
2	1	0	1	0	0	0	2,715059931411815E+001	3,4236820E+000	3,4242711E+000	1,122052569352089E-002	7,7801371E-005	7,7801371E-005	41	2,161149194158659E-005	0	3,8422124E-005	7,400397062363408E-008	0,000000000000000E+000	9,270528453057721E+005	0,000000000000000E+000	2,715059931411815E+001	0,000000000000000E+000	2,161149194158659E-005	2,161149194158659E-005	0,0000000E+000	0,000000000000000E+000
2	1	0	1	0	0	0	2,765059930148709E+001	3,4236820E+000	3,4243283E+000	1,118819341585039E-002	8,3395469E-005	8,3395469E-005	41	2,316540773373142E-005	0	3,8312046E-005	7,932508975579508E-008	0,000000000000000E+000	5,908546357249904E+005	0,000000000000000E+000	2,765059930148709E+001	0,000000000000000E+000	2,316540773373142E-005	2,316540773373142E-005	0,0000000E+000	0,000000000000000E+000
2	1	0	1	0	0	0	2,815059928885603E+001	3,4236820E+000	3,4243360E+000	1,116016494520009E-002	8,8975554E-005	8,8975554E-005	41	2,471543068914616E-005	0	3,8216156E-005	8,463289104544247E-008	0,000000000000000E+000	5,980617103915875E+005	0,000000000000000E+000	2,815059928885603E+001	0,000000000000000E+000	2,471543068914616E-005	2,471543068914616E-005	0,0000000E+000	0,000000000000000E+000
2	1	0	1	0	0	0	2,865059927622497E+001	3,4236820E+000	3,4243131E+000	1,111210126280784E-002	9,4531599E-005	9,4531599E-005	41	2,625877824404840E-005	0	3,8051316E-005	8,991779028067802E-008	0,000000000000000E+000	7,509361269826716E+005	0,000000000000000E+000	2,865059927622497E+001	0,000000000000000E+000	2,625877824404840E-005	2,625877824404840E-005	0,0000000E+000	0,000000000000000E+000
2	1	0	1	0	0	0	2,915059926359390E+001	3,4236820E+000	3,4243093E+000	1,109074721597134E-002	1,0007698E-004	1,0007698E-004	41	2,779915990633728E-005	0	3,7978149E-005	9,519253763432317E-008	0,000000000000000E+000	8,198305846297741E+005	0,000000000000000E+000	2,915059926359390E+001	0,000000000000000E+000	2,779915990633728E-005	2,779915990633728E-005	0,0000000E+000	0,000000000000000E+000
2	1	0	1	0	0	0	2,965059925096284E+001	3,4236820E+000	3,4243093E+000	1,106672584265470E-002	1,0561034E-004	1,0561034E-004	41	2,933620522393580E-005	0	3,7895890E-005	1,004558517121106E-007	0,000000000000000E+000	8,651598955001354E+005	0,000000000000000E+000	2,965059925096284E+001	0,000000000000000E+000	2,933620522393580E-005	2,933620522393580E-005	0,0000000E+000	0,000000000000000E+000
2	1	0	1	0	0	0	3,010259923954436E+001	3,4236820E+000	3,4243207E+000	1,105896046475827E-002	1,1060899E-004	1,1060899E-004	41	3,072471925740279E-005	0	3,7869428E-005	1,052105739262579E-007	0,000000000000000E+000	8,284423685155814E+005	0,000000000000000E+000	3,010259923954436E+001	0,000000000000000E+000	3,072471925740279E-005	3,072471925740279E-005	0,0000000E+000	0,000000000000000E+000
2	1	0	0	0	0	0	2,210711987998657E+002	3,4330792E+000	3,4335508E+000	9,547224525788683E-003	4,4976978E-006	4,4976978E-006	42	-2,947535871517741E-005	1	3,2780881E-005	1,052105739262579E-007	0,000000000000000E+000	8,284423685155814E+005	0,000000000000000E+000	0,000000000000000E+000	2,947535871517741E-005	0,000000000000000E+000	2,947535871517741E-005	9,5933693E+001	0,000000000000000E+000
2	1	0	0	0	0	0	2,215711987872346E+002	3,4330792E+000	3,4336386E+000	1,062002035528421E-002	9,8077089E-006	9,8077089E-006	42	1,475002928119567E-006	2	3,6465310E-005	5,064627526822061E-009	0,000000000000000E+000	0,000000000000000E+000	0,000000000000000E+000	0,000000000000000E+000	0,000000000000000E+000	1,475002928119567E-006	1,475002928119567E-006	0,0000000E+000	1,000000000000000E+000
2	1	0	0	0	0	0	2,220711987746035E+002	3,4330792E+000	3,4336917E+000	1,141468885239545E-002	1,5457706E-005	1,5457706E-005	41	3,044446845849355E-006	2	3,9194525E-005	1,045361361262236E-008	0,000000000000000E+000	2,061417403587444E+005	0,000000000000000E+000	4,999999873689376E-001	0,000000000000000E+000	3,044446845849355E-006	3,044446845849355E-006	0,0000000E+000	1,000000000000000E+000
2	1	0	0	0	0	0	2,225711987619725E+002	3,4330792E+000	3,4337263E+000	1,159958061538637E-002	2,1257498E-005	2,1257498E-005	41	4,655499869077984E-006	2	3,9829785E-005	1,598552918701054E-008	0,000000000000000E+000	1,910209081585428E+005	0,000000000000000E+000	9,999999747378752E-001	0,000000000000000E+000	4,655499869077984E-006	4,655499869077984E-006	0,0000000E+000	1,000000000000000E+000
2	1	0	0	0	0	0	2,230711987493414E+002	3,4330792E+000	3,4336615E+000	1,179863302931189E-002	2,7156815E-005	2,7156815E-005	41	6,294199050352392E-006	2	4,0512514E-005	2,161226767607760E-008	0,000000000000000E+000	9,899919095133464E+005	0,000000000000000E+000	1,499999962106813E+000	0,000000000000000E+000	6,294199050352392E-006	6,294199050352392E-006	0,0000000E+000	1,000000000000000E+000
2	1	0	0	0	0	0	2,235711987367104E+002	3,4330792E+000	3,4337568E+000	1,197077268622815E-002	3,3142202E-005	3,3142202E-005	41	7,956806493923066E-006	2	4,1104722E-005	2,732125700869150E-008	0,000000000000000E+000	2,422253126953125E+005	0,000000000000000E+000	1,999999949475750E+000	0,000000000000000E+000	7,956806493923066E-006	7,956806493923066E-006	0,0000000E+000	1,000000000000000E+000
2	1	0	0	0	0	0	2,240711987240793E+002	3,4330792E+000	3,4337034E+000	1,210951625630259E-002	3,9196959E-005	3,9196959E-005	41	9,638683851497868E-006	2	4,1580486E-005	3,309632386781286E-008	0,000000000000000E+000	5,350707824965533E+005	0,000000000000000E+000	2,499999936844688E+000	0,000000000000000E+000	9,638683851497868E-006	9,638683851497868E-006	0,0000000E+000	1,000000000000000E+000
2	1	0	0	0	0	0	2,245711987114482E+002	3,4330792E+000	3,4337451E+000	1,225867560207844E-002	4,5326298E-005	4,5326298E-005	41	1,134127782812963E-005	2	4,2093168E-005	3,894259875567662E-008	0,000000000000000E+000	3,831041634333053E+005	0,000000000000000E+000	2,999999924213625E+000	0,000000000000000E+000	1,134127782812963E-005	1,134127782812963E-005	0,0000000E+000	1,000000000000000E+000
2	1	0	0	0	0	0	2,250711986988172E+002	3,4330792E+000	3,4336996E+000	1,237457522153854E-002	5,1513587E-005	5,1513587E-005	41	1,305996890831739E-005	2	4,2490574E-005	4,484406853029947E-008	0,000000000000000E+000	7,703083101379394E+005	0,000000000000000E+000	3,499999911582563E+000	0,000000000000000E+000	1,305996890831739E-005	1,305996890831739E-005	0,0000000E+000	1,000000000000000E+000
2	1	0	0	0	0	0	2,255711986861861E+002	3,4330792E+000	3,4337339E+000	1,248563271611929E-002	5,7756402E-005	5,7756402E-005	41	1,479408472683280E-005	2	4,2872340E-005	5,079855929107422E-008	0,000000000000000E+000	5,584579987148436E+005	0,000000000000000E+000	3,999999898951501E+000	0,000000000000000E+000	1,479408472683280E-005	1,479408472683280E-005	0,0000000E+000	1,000000000000000E+000
2	1	0	0	0	0	0	2,260711986735550E+002	3,4330792E+000	3,4337375E+000	1,258174624703823E-002	6,4047279E-005	6,4047279E-005	41	1,654154956387356E-005	2	4,3202414E-005	5,679889792559807E-008	0,000000000000000E+000	6,018530964024849E+005	0,000000000000000E+000	4,499999886320438E+000	0,000000000000000E+000	1,654154956387356E-005	1,654154956387356E-005	0,0000000E+000	1,000000000000000E+000
2	1	0	0	0	0	0	2,265711986609240E+002	3,4330792E+000	3,4337413E+000	1,264938933178780E-002	7,0371971E-005	7,0371971E-005	41	1,829840928559295E-005	2	4,3434731E-005	6,283149656167209E-008	0,000000000000000E+000	6,410596949807859E+005	0,000000000000000E+000	4,999999873689376E+000	0,000000000000000E+000	1,829840928559295E-005	1,829840928559295E-005	0,0000000E+000	1,000000000000000E+000
2	1	0	0	0	0	0	2,270711986482929E+002	3,4330792E+000	3,4337337E+000	1,273565991856157E-002	7,6739801E-005	7,6739801E-005	41	2,006725109761788E-005	2	4,3730866E-005	6,890522856133008E-008	0,000000000000000E+000	7,594118936638471E+005	0,000000000000000E+000	5,499999861058313E+000	0,000000000000000E+000	2,006725109761788E-005	2,006725109761788E-005	0,0000000E+000	1,000000000000000E+000
2	1	0	0	0	0	0	2,275711986356619E+002	3,4330792E+000	3,4337530E+000	1,280011367388068E-002	8,3139857E-005	8,3139857E-005	41	2,184504482217340E-005	2	4,3952426E-005	7,500973178555340E-008	0,000000000000000E+000	6,871856915836587E+005	0,000000000000000E+000	5,999999848427251E+000	0,000000000000000E+000	2,184504482217340E-005	2,184504482217340E-005	0,0000000E+000	1,000000000000000E+000
2	1	0	0	0	0	0	2,280711986230308E+002	3,4330792E+000	3,4336767E+000	1,285965128876265E-002	8,9569687E-005	8,9569687E-005	41	2,363110762493064E-005	2	4,4155884E-005	8,114249704363959E-008	0,000000000000000E+000	2,230111107802734E+006	0,000000000000000E+000	6,499999835796189E+000	0,000000000000000E+000	2,363110762493064E-005	2,363110762493064E-005	0,0000000E+000	1,000000000000000E+000
2	1	0	0	0	0	0	2,285711986103997E+002	3,4330792E+000	3,4337566E+000	1,295869734287258E-002	9,6049036E-005	9,6049036E-005	41	2,543092684768554E-005	2	4,4497010E-005	8,732263834435418E-008	0,000000000000000E+000	7,757457323705808E+005	0,000000000000000E+000	6,999999823165126E+000	0,000000000000000E+000	2,543092684768554E-005	2,543092684768554E-005	0,0000000E+000	1,000000000000000E+000
2	1	0	0	0	0	0	2,290711985977687E+002	3,4330792E+000	3,4337492E+000	1,301636596061284E-002	1,0255722E-004	1,0255722E-004	41	2,723875560730488E-005	2	4,4694938E-005	9,353026935748441E-008	0,000000000000000E+000	8,864039606798894E+005	0,000000000000000E+000	7,499999810534064E+000	0,000000000000000E+000	2,723875560730488E-005	2,723875560730488E-005	0,0000000E+000	1,000000000000000E+000
2	1	0	0	0	0	0	2,295711985851376E+002	3,4330792E+000	3,4337111E+000	1,310132331438363E-002	1,0910788E-004	1,0910788E-004	41	2,905838397807545E-005	2	4,4986158E-005	9,977834637508077E-008	0,000000000000000E+000	1,443312191282895E+006	0,000000000000000E+000	7,999999797903001E+000	0,000000000000000E+000	2,905838397807545E-005	2,905838397807545E-005	0,0000000E+000	1,000000000000000E+000
2	1	0	0	0	0	0	2,300711985725065E+002	3,4330792E+000	3,4337111E+000	1,312011758126318E-002	1,1566794E-004	1,1566794E-004	41	3,088062268604214E-005	2	4,5050692E-005	1,060353897061790E-007	0,000000000000000E+000	1,533821675382915E+006	0,000000000000000E+000	8,499999785271939E+000	0,000000000000000E+000	3,088062268604214E-005	3,088062268604214E-005	0,0000000E+000	1,000000000000000E+000
2	1	0	0	0	0	0	2,305231985610881E+002	3,4330792E+000	3,4336615E+000	1,319525796277199E-002	1,2163220E-004	1,2163220E-004	41	3,253736069068934E-005	2	4,5308047E-005	1,117240656505553E-007	0,000000000000000E+000	5,117684328540039E+006	0,000000000000000E+000	8,951999773853458E+000	0,000000000000000E+000	3,253736069068934E-005	3,253736069068934E-005	0,0000000E+000	1,000000000000000E+000
2	1	0	0	0	0	0	4,208817980924359E+002	3,4383779E+000	3,4388921E+000	9,386411851541526E-003	4,4231801E-006	4,4231801E-006	42	-3,255806008659097E-005	3	3,2278858E-005	1,117240656505553E-007	0,000000000000000E+000	5,117684328540039E+006	0,000000000000000E+000	0,000000000000000E+000	3,255806008659097E-005	0,000000000000000E+000	3,255806008659097E-005	1,0006361E+002	1,000000000000000E+000
2	1	0	0	0	0	0	4,213817980798049E+002	3,4383779E+000	3,4389036E+000	1,043389857485888E-002	9,6401300E-006	9,6401300E-006	42	1,449152665730152E-006	4	3,5881170E-005	4,983496499176274E-009	0,000000000000000E+000	0,000000000000000E+000	0,000000000000000E+000	0,000000000000000E+000	0,000000000000000E+000	1,449152665730152E-006	1,449152665730152E-006	0,0000000E+000	2,000000000000000E+000
2	1	0	0	0	0	0	4,218817980671738E+002	3,4383779E+000	3,4389760E+000	1,139437285269054E-002	1,5130179E-005	1,5130179E-005	41	2,974166320895569E-006	4	3,9184975E-005	1,022798203256370E-008	0,000000000000000E+000	1,477250253520765E+005	0,000000000000000E+000	4,999999873689376E-001	0,000000000000000E+000	2,974166320895569E-006	2,974166320895569E-006	0,0000000E+000	2,000000000000000E+000
2	1	0	0	0	0	0	4,223817980545427E+002	3,4383779E+000	3,4390371E+000	1,146001174300909E-002	2,0860185E-005	2,0860185E-005	41	4,565834756371461E-006	4	3,9411407E-005	1,570178826243346E-008	0,000000000000000E+000	1,231103505984933E+005	0,000000000000000E+000	9,999999747378752E-001	0,000000000000000E+000	4,565834756371461E-006	4,565834756371461E-006	0,0000000E+000	2,000000000000000E+000
2	1	0	0	0	0	0	4,228817980419117E+002	3,4383779E+000	3,4389608E+000	1,162768936753270E-002	2,6674030E-005	2,6674030E-005	41	6,180791768607580E-006	4	3,9987168E-005	2,125556171691292E-008	0,000000000000000E+000	3,888617945735677E+005	0,000000000000000E+000	1,499999962106813E+000	0,000000000000000E+000	6,180791768607580E-006	6,180791768607580E-006	0,0000000E+000	2,000000000000000E+000
2	1	0	0	0	0	0	4,233817980292806E+002	3,4383779E+000	3,4389875E+000	1,177929377369580E-002	3,2563679E-005	3,2563679E-005	41	7,816804954989089E-006	4	4,0508843E-005	2,688179244787588E-008	0,000000000000000E+000	3,353119393288352E+005	0,000000000000000E+000	1,999999949475750E+000	0,000000000000000E+000	7,816804954989089E-006	7,816804954989089E-006	0,0000000E+000	2,000000000000000E+000
2	1	0	0	0	0	0	4,238817980166496E+002	3,4383779E+000	3,4389837E+000	1,191342789568006E-002	3,8520393E-005	3,8520393E-005	41	9,471447881776838E-006	4	4,0970084E-005	3,257208168877764E-008	0,000000000000000E+000	4,256371257463727E+005	0,000000000000000E+000	2,499999936844688E+000	0,000000000000000E+000	9,471447881776838E-006	9,471447881776838E-006	0,0000000E+000	2,000000000000000E+000
2	1	0	0	0	0	0	4,243817980040185E+002	3,4383779E+000	3,4390409E+000	1,201904649175704E-002	4,4529916E-005	4,4529916E-005	41	1,114076002842436E-005	4	4,1333991E-005	3,831291337803771E-008	0,000000000000000E+000	2,920483396891276E+005	0,000000000000000E+000	2,999999924213625E+000	0,000000000000000E+000	1,114076002842436E-005	1,114076002842436E-005	0,0000000E+000	2,000000000000000E+000
2	1	0	0	0	0	0	4,248817979913874E+002	3,4383779E+000	3,4389417E+000	1,212372626028955E-002	5,0591778E-005	5,0591778E-005	41	1,282461094592387E-005	4	4,1692787E-005	4,410357751186061E-008	0,000000000000000E+000	1,210282132250977E+006	0,000000000000000E+000	3,499999911582563E+000	0,000000000000000E+000	1,282461094592387E-005	1,282461094592387E-005	0,0000000E+000	2,000000000000000E+000
2	1	0	0	0	0	0	4,253817979787564E+002	3,4383779E+000	3,4389379E+000	1,220897838510573E-002	5,6696270E-005	5,6696270E-005	41	1,452030244231638E-005	4	4,1985921E-005	4,993495782164526E-008	0,000000000000000E+000	1,522564065375434E+006	0,000000000000000E+000	3,999999898951501E+000	0,000000000000000E+000	1,452030244231638E-005	1,452030244231638E-005	0,0000000E+000	2,000000000000000E+000
2	1	0	0	0	0	0	4,258817979661253E+002	3,4383779E+000	3,4390752E+000	1,228648354522882E-002	6,2839514E-005	6,2839514E-005	41	1,622675865935162E-005	4	4,2254142E-005	5,580359049500902E-008	0,000000000000000E+000	3,402997937597656E+005	0,000000000000000E+000	4,499999886320438E+000	0,000000000000000E+000	1,622675865935162E-005	1,622675865935162E-005	0,0000000E+000	2,000000000000000E+000
2	1	0	0	0	0	0	4,263817979534942E+002	3,4383779E+000	3,4390180E+000	1,236899386979639E-002	6,9024012E-005	6,9024012E-005	41	1,794467462319881E-005	4	4,2537191E-005	6,171153540926304E-008	0,000000000000000E+000	5,644906541308593E+005	0,000000000000000E+000	4,999999873689376E+000	0,000000000000000E+000	1,794467462319881E-005	1,794467462319881E-005	0,0000000E+000	2,000000000000000E+000
2	1	0	0	0	0	0	4,268817979408632E+002	3,4383779E+000	3,4389722E+000	1,246851065084337E-002	7,5258264E-005	7,5258264E-005	41	1,967641233756310E-005	4	4,2878859E-005	6,766692923335395E-008	0,000000000000000E+000	1,031610687163628E+006	0,000000000000000E+000	5,499999861058313E+000	0,000000000000000E+000	1,967641233756310E-005	1,967641233756310E-005	0,0000000E+000	2,000000000000000E+000
2	1	0	0	0	0	0	4,273817979282321E+002	3,4383779E+000	3,4390256E+000	1,259471675381063E-002	8,1555627E-005	8,1555627E-005	41	2,142567866223140E-005	4	4,3313554E-005	7,368270515448236E-008	0,000000000000000E+000	6,318689745635986E+005	0,000000000000000E+000	5,999999848427251E+000	0,000000000000000E+000	2,142567866223140E-005	2,142567866223140E-005	0,0000000E+000	2,000000000000000E+000
2	1	0	0	0	0	0	4,278817979156011E+002	3,4383779E+000	3,4389837E+000	1,268915910460054E-002	8,7900204E-005	8,7900204E-005	41	2,318806199682876E-005	4	4,3637810E-005	7,974350964724167E-008	0,000000000000000E+000	1,042047655559431E+006	0,000000000000000E+000	6,499999835796189E+000	0,000000000000000E+000	2,318806199682876E-005	2,318806199682876E-005	0,0000000E+000	2,000000000000000E+000
2	1	0	0	0	0	0	4,283817979029700E+002	3,4383779E+000	3,4389913E+000	1,275854563936590E-002	9,4279480E-005	9,4279480E-005	41	2,496008234538345E-005	4	4,3876527E-005	8,583747472573615E-008	0,000000000000000E+000	1,024142998906675E+006	0,000000000000000E+000	6,999999823165126E+000	0,000000000000000E+000	2,496008234538345E-005	2,496008234538345E-005	0,0000000E+000	2,000000000000000E+000
2	1	0	0	0	0	0	4,288817978903389E+002	3,4383779E+000	3,4389799E+000	1,281980673298239E-002	1,0068938E-004	1,0068938E-004	41	2,674061111231438E-005	4	4,4087057E-005	9,196067426342003E-008	0,000000000000000E+000	1,261780336696777E+006	0,000000000000000E+000	7,499999810534064E+000	0,000000000000000E+000	2,674061111231438E-005	2,674061111231438E-005	0,0000000E+000	2,000000000000000E+000
2	1	0	0	0	0	0	4,293817978777079E+002	3,4383779E+000	3,4390295E+000	1,287911942452191E-002	1,0712894E-004	1,0712894E-004	41	2,852937778494217E-005	4	4,4291672E-005	9,811229282711947E-008	0,000000000000000E+000	8,158696592788233E+005	0,000000000000000E+000	7,999999797903001E+000	0,000000000000000E+000	2,852937778494217E-005	2,852937778494217E-005	0,0000000E+000	2,000000000000000E+000
2	1	0	0	0	0	0	4,298817978650768E+002	3,4383779E+000	3,4389875E+000	1,290004548355936E-002	1,1357896E-004	1,1357896E-004	41	3,032105085693507E-005	4	4,4363092E-005	1,042738381515754E-007	0,000000000000000E+000	1,300660618228427E+006	0,000000000000000E+000	8,499999785271939E+000	0,000000000000000E+000	3,032105085693507E-005	3,032105085693507E-005	0,0000000E+000	2,000000000000000E+000
2	1	0	0	0	0	0	4,303337978536583E+002	3,4383779E+000	3,4389951E+000	1,294163771682474E-002	1,1942859E-004	1,1942859E-004	41	3,194594549237647E-005	4	4,4506229E-005	1,098618446469431E-007	0,000000000000000E+000	1,256165690273031E+006	0,000000000000000E+000	8,951999773853458E+000	0,000000000000000E+000	3,194594549237647E-005	3,194594549237647E-005	0,0000000E+000	2,000000000000000E+000
2	1	0	0	0	0	0	6,204833973750792E+002	3,4424767E+000	3,4430401E+000	9,855054563905064E-003	4,6403261E-006	4,6403261E-006	42	-3,188562711783581E-005	5	3,3931348E-005	1,098618446469431E-007	0,000000000000000E+000	1,256165690273031E+006	0,000000000000000E+000	0,000000000000000E+000	3,188562711783581E-005	0,000000000000000E+000	3,188562711783581E-005	9,9811188E+001	2,000000000000000E+000
2	1	0	0	0	0	0	6,209833973624482E+002	3,4424767E+000	3,4430745E+000	1,144380344013715E-002	1,0040521E-005	1,0040521E-005	41	1,500054256524891E-006	6	3,9401868E-005	5,164798462578546E-009	0,000000000000000E+000	0,000000000000000E+000	0,000000000000000E+000	0,000000000000000E+000	0,000000000000000E+000	1,500054256524891E-006	1,500054256524891E-006	0,0000000E+000	3,000000000000000E+000
2	1	0	0	0	0	0	6,214833973498171E+002	3,4424767E+000	3,4430745E+000	1,152321448177096E-002	1,5802128E-005	1,5802128E-005	41	3,100500789108790E-006	6	3,9675284E-005	1,067525465110085E-008	0,000000000000000E+000	0,000000000000000E+000	0,000000000000000E+000	4,999999873689376E-001	0,000000000000000E+000	3,100500789108790E-006	3,100500789108790E-006	0,0000000E+000	3,000000000000000E+000
2	1	0	0	0	0	0	6,219833973371860E+002	3,4424767E+000	3,4430554E+000	1,173457980677485E-002	2,1669419E-005	2,1669419E-005	41	4,730303615176429E-006	6	4,0402807E-005	1,628675625851339E-008	0,000000000000000E+000	8,928149118457030E+005	0,000000000000000E+000	9,999999747378752E-001	0,000000000000000E+000	4,730303615176429E-006	4,730303615176429E-006	0,0000000E+000	3,000000000000000E+000
2	1	0	0	0	0	0	6,224833973245550E+002	3,4424767E+000	3,4430363E+000	1,191840445995329E-002	2,7628623E-005	2,7628623E-005	41	6,385637708473951E-006	6	4,1035499E-005	2,198613279034563E-008	0,000000000000000E+000	6,026243801220703E+005	0,000000000000000E+000	1,499999962106813E+000	0,000000000000000E+000	6,385637708473951E-006	6,385637708473951E-006	0,0000000E+000	3,000000000000000E+000
2	1	0	0	0	0	0	6,229833973119239E+002	3,4424767E+000	3,4430516E+000	1,208577600158750E-002	3,3671509E-005	3,3671509E-005	41	8,064217802447577E-006	6	4,1611951E-005	2,776556889549967E-008	0,000000000000000E+000	1,268391786962891E+006	0,000000000000000E+000	1,999999949475750E+000	0,000000000000000E+000	8,064217802447577E-006	8,064217802447577E-006	0,0000000E+000	3,000000000000000E+000
2	1	0	0	0	0	0	6,234833972992928E+002	3,4424767E+000	3,4430478E+000	1,221726662293075E-002	3,9780145E-005	3,9780145E-005	41	9,761060545014010E-006	6	4,2064632E-005	3,360788126539560E-008	0,000000000000000E+000	1,315956062834821E+006	0,000000000000000E+000	2,499999936844688E+000	0,000000000000000E+000	9,761060545014010E-006	9,761060545014010E-006	0,0000000E+000	3,000000000000000E+000
2	1	0	0	0	0	0	6,239833972866618E+002	3,4424767E+000	3,4430478E+000	1,234640927277505E-002	4,5953348E-005	4,5953348E-005	41	1,147583965869207E-005	6	4,2509277E-005	3,951194550780455E-008	0,000000000000000E+000	1,547137291622489E+006	0,000000000000000E+000	2,999999924213625E+000	0,000000000000000E+000	1,147583965869207E-005	1,147583965869207E-005	0,0000000E+000	3,000000000000000E+000
2	1	0	0	0	0	0	6,244833972740307E+002	3,4424767E+000	3,4430554E+000	1,244202636145055E-002	5,2174364E-005	5,2174364E-005	41	1,320389901380986E-005	6	4,2838587E-005	4,546175230436070E-008	0,000000000000000E+000	2,492152490214844E+006	0,000000000000000E+000	3,499999911582563E+000	0,000000000000000E+000	1,320389901380986E-005	1,320389901380986E-005	0,0000000E+000	3,000000000000000E+000
2	1	0	0	0	0	0	6,249833972613997E+002	3,4424767E+000	3,4430707E+000	1,253336597159503E-002	5,8441045E-005	5,8441045E-005	41	1,494464437725643E-005	6	4,3153264E-005	5,145525882131200E-008	0,000000000000000E+000	1,410353588027344E+007	0,000000000000000E+000	3,999999898951501E+000	0,000000000000000E+000	1,494464437725643E-005	1,494464437725643E-005	0,0000000E+000	3,000000000000000E+000
2	1	0	0	0	0	0	6,254833972487686E+002	3,4424767E+000	3,4430859E+000	1,262209856137632E-002	6,4752094E-005	6,4752094E-005	41	1,669771374213613E-005	6	4,3458971E-005	5,749122677603678E-008	0,000000000000000E+000	5,252646565462239E+006	0,000000000000000E+000	4,499999886320438E+000	0,000000000000000E+000	1,669771374213613E-005	1,669771374213613E-005	0,0000000E+000	3,000000000000000E+000
2	1	0	0	0	0	0	6,259833972361375E+002	3,4424767E+000	3,4430668E+000	1,273837206661702E-002	7,1121285E-005	7,1121285E-005	41	1,846693216854085E-005	6	4,3859065E-005	6,358276890539248E-008	0,000000000000000E+000	8,713791839501953E+006	0,000000000000000E+000	4,999999873689376E+000	0,000000000000000E+000	1,846693216854085E-005	1,846693216854085E-005	0,0000000E+000	3,000000000000000E+000
2	1	0	0	0	0	0	6,264833972235065E+002	3,4424767E+000	3,4430707E+000	1,281385869458318E-002	7,7528210E-005	7,7528210E-005	41	2,024663488587571E-005	6	4,4119020E-005	6,971040605736424E-008	0,000000000000000E+000	1,910712187988281E+007	0,000000000000000E+000	5,499999861058313E+000	0,000000000000000E+000	2,024663488587571E-005	2,024663488587571E-005	0,0000000E+000	3,000000000000000E+000
2	1	0	0	0	0	0	6,269833972108754E+002	3,4424767E+000	3,4430974E+000	1,287692556902767E-002	8,3966675E-005	8,3966675E-005	41	2,203509693644527E-005	6	4,4336510E-005	7,586825731159540E-008	0,000000000000000E+000	3,465821070784505E+006	0,000000000000000E+000	5,999999848427251E+000	0,000000000000000E+000	2,203509693644527E-005	2,203509693644527E-005	0,0000000E+000	3,000000000000000E+000
2	1	0	0	0	0	0	6,274833971982443E+002	3,4424767E+000	3,4430439E+000	1,293726590499281E-002	9,0435307E-005	9,0435307E-005	41	2,383193957495193E-005	6	4,4543573E-005	8,205486396211308E-008	0,000000000000000E+000	2,811329985571289E+006	0,000000000000000E+000	6,499999835796189E+000	0,000000000000000E+000	2,383193957495193E-005	2,383193957495193E-005	0,0000000E+000	3,000000000000000E+000
2	1	0	0	0	0	0	6,279833971856133E+002	3,4424767E+000	3,4430630E+000	1,306133946217597E-002	9,6965981E-005	9,6965981E-005	41	2,564601455095948E-005	6	4,4971013E-005	8,830084233683971E-008	0,000000000000000E+000	8,067538606136067E+006	0,000000000000000E+000	6,999999823165126E+000	0,000000000000000E+000	2,564601455095948E-005	2,564601455095948E-005	0,0000000E+000	3,000000000000000E+000
2	1	0	0	0	0	0	6,284833971729822E+002	3,4424767E+000	3,4430478E+000	1,313421265818177E-002	1,0353309E-004	1,0353309E-004	41	2,747021089566664E-005	6	4,5221721E-005	9,458163544990153E-008	0,000000000000000E+000	3,703449067731584E+006	0,000000000000000E+000	7,499999810534064E+000	0,000000000000000E+000	2,747021089566664E-005	2,747021089566664E-005	0,0000000E+000	3,000000000000000E+000
2	1	0	0	0	0	0	6,289833971603512E+002	3,4424767E+000	3,4430897E+000	1,319828730896114E-002	1,1013223E-004	1,1013223E-004	41	2,930330645769007E-005	6	4,5442888E-005	1,008931448217201E-007	0,000000000000000E+000	6,913517371240234E+006	0,000000000000000E+000	7,999999797903001E+000	0,000000000000000E+000	2,930330645769007E-005	2,930330645769007E-005	0,0000000E+000	3,000000000000000E+000
2	1	0	0	0	0	0	6,294833971477201E+002	3,4424767E+000	3,4430363E+000	1,326956671997898E-002	1,1676701E-004	1,1676701E-004	41	3,114630188347978E-005	6	4,5687601E-005	1,072386470572626E-007	0,000000000000000E+000	2,939333817939452E+006	0,000000000000000E+000	8,499999785271939E+000	0,000000000000000E+000	3,114630188347978E-005	3,114630188347978E-005	0,0000000E+000	3,000000000000000E+000
2	1	0	0	0	0	0	6,299353971363016E+002	3,4424767E+000	3,4431317E+000	1,332343220587126E-002	1,2278921E-004	1,2278921E-004	41	3,281913293561794E-005	6	4,5874331E-005	1,129984264877895E-007	0,000000000000000E+000	2,064801308225911E+006	0,000000000000000E+000	8,951999773853458E+000	0,000000000000000E+000	3,281913293561794E-005	3,281913293561794E-005	0,0000000E+000	3,000000000000000E+000