EC-Lab ASCII FILE
Nb header lines : 68                          

Cyclic Voltammetry Advanced

Run on channel : 1 (SN 18075)
User : 
Electrode connection : standard
Potential control : Ewe
Ewe ctrl range : min = -10.00 V, max = 10.00 V
Ewe,I filtering : 50 kHz
Safety Limits :
	Do not start on E overload
Channel : Grounded
Acquisition started on : 12/31/2024 17:44:01.191
Loaded Setting File :  C:\Users\Public\Documents\EC-Lab\Data\SP200\Andrew\241106_hte_kapton_muxtest\nomux\carb1_1M_NaPF6_50Vs.mps
Saved on :
	File : 1_THF_1M_NaPF6_50Vs_02_CVA_C01.mpr
	Directory : C:\Users\Public\Documents\EC-Lab\Data\SP200\Andrew\241231_hte_ethers\
	Host : 192.109.209.127
Device : SP-200 (SN 1458)
Address : 192.109.209.128
EC-LAB for windows v11.52 (software)
Internet server v11.52 (firmware)
Command interpretor v11.52 (firmware)
Electrode material : 
Initial state : 
Electrolyte : 
Comments : 
Cable : standard
Electrode surface area : 0.001 cm²
Characteristic mass : 0.001 g
Equivalent Weight : 0.000 g/eq.
Density : 0.000 g/cm3
Volume (V) : 0.001 cm³
Cycle Definition : Charge/Discharge alternance
Ei (V)              0.000               
vs.                 Eoc                 
ti (h:m:s)          0:00:0.0000         
dti (s)             1.0000              
dE/dt               50.000              
dE/dt unit          V/s                 
E1 (V)              -1.250              
vs.                 Ref                 
t1 (h:m:s)          0:00:0.0000         
dt1 (s)             0.0010              
Step percent        50                  
N                   1                   
E range min (V)     -10.000             
E range max (V)     10.000              
I Range             1 mA                
I Range min         Unset               
I Range max         Unset               
I Range init        Unset               
Bandwidth           8                   
E2 (V)              3.000               
vs.                 Ref                 
t2 (h:m:s)          0:00:0.0000         
dt2 (s)             0.0010              
nc cycles           0                   
nr                  1                   
Reverse Scan        0                   
Ef (V)              0.000               
vs.                 Eoc                 
tf (h:m:s)          0:00:0.0000         
dtf (s)             0.1000              

mode	ox/red	error	control changes	Ns changes	counter inc.	time/s	control/V	Ewe/V	<I>/mA	cycle number	(Q-Qo)/C	I Range	Ns	Rcmp/Ohm	step time/s	Pwe/W	Rwe/Ohm	
2	1	0	0	0	0	3.348400086251786E+000	2.8652937E+000	2.8663592E+000	2.204511692980304E-004	1.000000000000000E+000	0.0000000E+000	40	0	3.1409592E+003	0.000000000000000E+000	6.3189225E-007	1.3002241E+007
2	1	0	1	0	0	3.348600086246734E+000	2.8552849E+000	2.8566353E+000	6.511561514344066E-005	1.000000000000000E+000	1.3023123E-011	40	0	3.1409592E+003	0.000000000000000E+000	1.8601156E-007	4.3870204E+007
2	1	0	0	0	0	3.348800086241681E+000	2.8452890E+000	2.8465996E+000	4.502545925788581E-005	1.000000000000000E+000	2.2028214E-011	40	0	3.1409592E+003	1.999999949475750E-004	1.2816945E-007	6.3222000E+007
2	1	0	1	0	0	3.349000086236629E+000	2.8354437E+000	2.8367882E+000	3.918182846973650E-005	1.000000000000000E+000	2.9864580E-011	40	0	3.1409592E+003	3.999999898951501E-004	1.1115055E-007	7.2400608E+007
2	1	0	0	0	0	3.349200086231576E+000	2.8251731E+000	2.8265021E+000	3.020611620740965E-005	1.000000000000000E+000	3.5905803E-011	40	0	3.1409592E+003	5.999999848427251E-004	8.5377650E-008	9.3573832E+007
2	1	0	1	0	0	3.349400086226524E+000	2.8151915E+000	2.8165152E+000	3.104646020801738E-005	1.000000000000000E+000	4.2115096E-011	40	0	3.1409592E+003	7.999999797903001E-004	8.7442828E-008	9.0719368E+007
2	1	0	0	0	0	3.349600086221471E+000	2.8052197E+000	2.8065953E+000	2.344577114854474E-005	1.000000000000000E+000	4.6804251E-011	40	0	3.1409592E+003	9.999999747378752E-004	6.5802794E-008	1.1970582E+008
2	1	0	1	0	0	3.349800086216419E+000	2.7952168E+000	2.7965603E+000	1.890070416266099E-005	1.000000000000000E+000	5.0584391E-011	40	0	3.1409592E+003	1.199999969685450E-003	5.2856958E-008	1.4796064E+008
2	1	0	0	0	0	3.350000086211367E+000	2.7852409E+000	2.7865674E+000	1.653268554946408E-005	1.000000000000000E+000	5.3890926E-011	40	0	3.1409592E+003	1.399999964633025E-003	4.6069445E-008	1.6854899E+008
2	1	0	1	0	0	3.350200086206314E+000	2.7752550E+000	2.7765801E+000	1.183478980237851E-005	1.000000000000000E+000	5.6257887E-011	40	0	3.1409592E+003	1.599999959580600E-003	3.2860243E-008	2.3461170E+008
2	1	0	0	0	0	3.350400086201262E+000	2.7652624E+000	2.7666354E+000	6.716718417010270E-006	1.000000000000000E+000	5.7601229E-011	40	0	3.1409592E+003	1.799999954528175E-003	1.8582710E-008	4.1190285E+008
2	1	0	1	0	0	3.350600086196209E+000	2.7552772E+000	2.7565799E+000	1.827849473556853E-006	1.000000000000000E+000	5.7966798E-011	40	0	3.1409592E+003	1.999999949475750E-003	5.0386131E-009	1.5081001E+009
2	0	0	0	0	0	3.350800086191157E+000	2.7452929E+000	2.7466555E+000	-1.189450244964974E-006	1.000000000000000E+000	5.7728908E-011	40	0	3.1409592E+003	0.000000000000000E+000	-3.2670100E-009	2.3091807E+009
2	0	0	1	0	0	3.351000086186104E+000	2.7353082E+000	2.7365925E+000	-3.328359298393480E-006	1.000000000000000E+000	5.7063236E-011	40	0	3.1409592E+003	1.999999949475750E-004	-9.1083630E-009	8.2220467E+008
2	0	0	0	0	0	3.351200086181052E+000	2.7253177E+000	2.7265508E+000	-2.021015097852796E-005	1.000000000000000E+000	5.3021209E-011	40	0	3.1409592E+003	3.999999898951501E-004	-5.5104003E-008	1.3490997E+008
2	0	0	1	0	0	3.351400086176000E+000	2.7153242E+000	2.7166133E+000	-1.654347761359531E-005	1.000000000000000E+000	4.9712512E-011	40	0	3.1409592E+003	5.999999848427251E-004	-4.4942229E-008	1.6421053E+008
2	0	0	0	0	0	3.351600086170947E+000	2.7053773E+000	2.7066000E+000	-2.742880860751029E-005	1.000000000000000E+000	4.4226751E-011	40	0	3.1409592E+003	7.999999797903001E-004	-7.4238812E-008	9.8677272E+007
2	0	0	1	0	0	3.351800086165895E+000	2.6953657E+000	2.6966591E+000	-3.472392927506007E-005	1.000000000000000E+000	3.7281966E-011	40	0	3.1409592E+003	9.999999747378752E-004	-9.3638597E-008	7.7659960E+007
2	0	0	0	0	0	3.352000086160842E+000	2.6853998E+000	2.6866536E+000	-3.938359441235662E-005	1.000000000000000E+000	2.9405246E-011	40	0	3.1409592E+003	1.199999969685450E-003	-1.0581007E-007	6.8217584E+007
2	0	0	1	0	0	3.352200086155790E+000	2.6754227E+000	2.6767054E+000	-4.874115620623343E-005	1.000000000000000E+000	1.9657014E-011	40	0	3.1409592E+003	1.399999964633025E-003	-1.3046571E-007	5.4916740E+007
2	0	0	0	0	0	3.352400086150737E+000	2.6654370E+000	2.6667221E+000	-5.156748738954775E-005	1.000000000000000E+000	9.3435164E-012	40	0	3.1409592E+003	1.599999959580600E-003	-1.3751615E-007	5.1713244E+007
2	0	0	1	0	0	3.352600086145685E+000	2.6554666E+000	2.6567156E+000	-6.661604129476473E-005	1.000000000000000E+000	-3.9796916E-012	40	0	3.1409592E+003	1.799999954528175E-003	-1.7697988E-007	3.9881020E+007
2	0	0	0	0	0	3.352800086140633E+000	2.6454754E+000	2.6468070E+000	-7.536245539085940E-005	1.000000000000000E+000	-1.9052182E-011	40	0	3.1409592E+003	1.999999949475750E-003	-1.9946987E-007	3.5121028E+007
2	0	0	1	0	0	3.353000086135580E+000	2.6351891E+000	2.6364594E+000	-9.319919627159834E-005	1.000000000000000E+000	-3.7692023E-011	40	0	3.1409592E+003	2.199999944423325E-003	-2.4571588E-007	2.8288434E+007
2	0	0	0	0	0	3.353200086130528E+000	2.6252165E+000	2.6265194E+000	-1.027476318995468E-004	1.000000000000000E+000	-5.8241550E-011	40	0	3.1409592E+003	2.399999939370900E-003	-2.6986865E-007	2.5562822E+007
2	0	0	1	0	0	3.353400086125475E+000	2.6152725E+000	2.6165776E+000	-1.155809004558250E-004	1.000000000000000E+000	-8.1357726E-011	40	0	3.1409592E+003	2.599999934318475E-003	-3.0242640E-007	2.2638494E+007
2	0	0	0	0	0	3.353600086120423E+000	2.6053023E+000	2.6065755E+000	-1.251294452231377E-004	1.000000000000000E+000	-1.0638362E-010	40	0	3.1409592E+003	2.799999929266050E-003	-3.2615935E-007	2.0831032E+007
2	0	0	1	0	0	3.353800086115371E+000	2.5953426E+000	2.5966561E+000	-1.346016069874167E-004	1.000000000000000E+000	-1.3330394E-010	40	0	3.1409592E+003	2.999999924213625E-003	-3.4951410E-007	1.9291420E+007
2	0	0	0	0	0	3.354000086110318E+000	2.5853727E+000	2.5866807E+000	-1.447611866751686E-004	1.000000000000000E+000	-1.6225618E-010	40	0	3.1409592E+003	3.199999919161201E-003	-3.7445096E-007	1.7868606E+007
2	0	0	1	0	0	3.354200086105266E+000	2.5754023E+000	2.5766745E+000	-1.553028268972412E-004	1.000000000000000E+000	-1.9331674E-010	40	0	3.1409592E+003	3.399999914108776E-003	-4.0016482E-007	1.6591291E+007
2	0	0	0	0	0	3.354400086100213E+000	2.5654342E+000	2.5667164E+000	-1.700075663393363E-004	1.000000000000000E+000	-2.2731826E-010	40	0	3.1409592E+003	3.599999909056351E-003	-4.3636120E-007	1.5097660E+007
2	0	0	1	0	0	3.354600086095161E+000	2.5554669E+000	2.5566978E+000	-1.839865581132472E-004	1.000000000000000E+000	-2.6411556E-010	40	0	3.1409592E+003	3.799999904003926E-003	-4.7039805E-007	1.3896112E+007
2	0	0	0	0	0	3.354800086090108E+000	2.5451798E+000	2.5464983E+000	-2.075905649689958E-004	1.000000000000000E+000	-3.0563369E-010	40	0	3.1409592E+003	3.999999898951501E-003	-5.2862902E-007	1.2266927E+007
2	0	0	1	0	0	3.355000086085056E+000	2.5352237E+000	2.5365291E+000	-2.147710911231115E-004	1.000000000000000E+000	-3.4858791E-010	40	0	3.1409592E+003	4.199999893899076E-003	-5.4477312E-007	1.1810384E+007
2	0	0	0	0	0	3.355200086080004E+000	2.5252976E+000	2.5266054E+000	-2.263057685922831E-004	1.000000000000000E+000	-3.9384906E-010	40	0	3.1409592E+003	4.399999888846651E-003	-5.7178539E-007	1.1164565E+007
2	0	0	1	0	0	3.355400086074951E+000	2.5153203E+000	2.5166988E+000	-2.416979405097663E-004	1.000000000000000E+000	-4.4218865E-010	40	0	3.1409592E+003	4.599999883794226E-003	-6.0828091E-007	1.0412579E+007
2	0	0	0	0	0	3.355600086069899E+000	2.5053566E+000	2.5066381E+000	-2.587707131169736E-004	1.000000000000000E+000	-4.9394278E-010	40	0	3.1409592E+003	4.799999878741801E-003	-6.4864452E-007	9.6867150E+006
2	0	0	1	0	0	3.355800086064846E+000	2.4954047E+000	2.4967194E+000	-2.734754525590688E-004	1.000000000000000E+000	-5.4863786E-010	40	0	3.1409592E+003	4.999999873689376E-003	-6.8279144E-007	9.1295920E+006
2	0	0	0	0	0	3.356000086059794E+000	2.4854584E+000	2.4867482E+000	-2.892496704589576E-004	1.000000000000000E+000	-6.0648780E-010	40	0	3.1409592E+003	5.199999868636951E-003	-7.1929111E-007	8.5972380E+006
2	0	0	1	0	0	3.356200086054741E+000	2.4751709E+000	2.4764454E+000	-3.113641287200153E-004	1.000000000000000E+000	-6.6876066E-010	40	0	3.1409592E+003	5.399999863584526E-003	-7.7107626E-007	7.9535350E+006
2	0	0	0	0	0	3.356400086049689E+000	2.4652205E+000	2.4665315E+000	-3.297354560345411E-004	1.000000000000000E+000	-7.3470774E-010	40	0	3.1409592E+003	5.599999858532101E-003	-8.1330290E-007	7.4803345E+006
2	0	0	1	0	0	3.356600086044637E+000	2.4552898E+000	2.4565878E+000	-3.488706424832344E-004	1.000000000000000E+000	-8.0448187E-010	40	0	3.1409592E+003	5.799999853479676E-003	-8.5703135E-007	7.0415435E+006
2	0	0	0	0	0	3.356800086039584E+000	2.4453473E+000	2.4466362E+000	-3.591449349187315E-004	1.000000000000000E+000	-8.7631086E-010	40	0	3.1409592E+003	5.999999848427251E-003	-8.7869699E-007	6.8123925E+006
2	0	0	1	0	0	3.357000086034532E+000	2.4354076E+000	2.4366872E+000	-3.779746766667813E-004	1.000000000000000E+000	-9.5190578E-010	40	0	3.1409592E+003	6.199999843374826E-003	-9.2100606E-007	6.4466945E+006
2	0	0	0	0	0	3.357200086029479E+000	2.4254398E+000	2.4266949E+000	-3.924884367734194E-004	1.000000000000000E+000	-1.0304034E-009	40	0	3.1409592E+003	6.399999838322401E-003	-9.5244968E-007	6.1828440E+006
2	0	0	1	0	0	3.357400086024427E+000	2.4151654E+000	2.4164660E+000	-4.203700518701226E-004	1.000000000000000E+000	-1.1144775E-009	40	0	3.1409592E+003	6.599999833269976E-003	-1.0158100E-006	5.7484255E+006
2	0	0	0	0	0	3.357600086019374E+000	2.4052110E+000	2.4065216E+000	-4.356860590633005E-004	1.000000000000000E+000	-1.2016147E-009	40	0	3.1409592E+003	6.799999828217551E-003	-1.0484879E-006	5.5235220E+006
2	0	0	1	0	0	3.357800086014322E+000	2.3952987E+000	2.3966000E+000	-4.540573863778263E-004	1.000000000000000E+000	-1.2924262E-009	40	0	3.1409592E+003	6.999999823165126E-003	-1.0881939E-006	5.2781875E+006
2	0	0	0	0	0	3.358000086009270E+000	2.3853464E+000	2.3866501E+000	-4.734981630463153E-004	1.000000000000000E+000	-1.3871257E-009	40	0	3.1409592E+003	7.199999818112701E-003	-1.1300745E-006	5.0404630E+006
2	0	0	1	0	0	3.358200086004217E+000	2.3754041E+000	2.3766680E+000	-4.943904350511730E-004	1.000000000000000E+000	-1.4860039E-009	40	0	3.1409592E+003	7.399999813060276E-003	-1.1750019E-006	4.8072695E+006
2	0	0	0	0	0	3.358400085999165E+000	2.3654649E+000	2.3667388E+000	-5.151297664269805E-004	1.000000000000000E+000	-1.5890298E-009	40	0	3.1409592E+003	7.599999808007851E-003	-1.2191776E-006	4.5944515E+006
2	0	0	1	0	0	3.358600085994112E+000	2.3551974E+000	2.3564861E+000	-5.378935020416975E-004	1.000000000000000E+000	-1.6966085E-009	40	0	3.1409592E+003	7.799999802955426E-003	-1.2675386E-006	4.3809530E+006
2	0	0	0	0	0	3.358800085989060E+000	2.3452625E+000	2.3465190E+000	-5.527892499230802E-004	1.000000000000000E+000	-1.8071664E-009	40	0	3.1409592E+003	7.999999797903001E-003	-1.2971304E-006	4.2448710E+006
2	0	0	1	0	0	3.359000085984007E+000	2.3353338E+000	2.3366194E+000	-5.763168446719646E-004	1.000000000000000E+000	-1.9224298E-009	40	0	3.1409592E+003	8.199999792850576E-003	-1.3466331E-006	4.0544008E+006
2	0	0	0	0	0	3.359200085978955E+000	2.3253806E+000	2.3266189E+000	-6.014102837070823E-004	1.000000000000000E+000	-2.0427118E-009	40	0	3.1409592E+003	8.399999787798151E-003	-1.3992525E-006	3.8686053E+006
2	0	0	1	0	0	3.359400085973903E+000	2.3154545E+000	2.3167446E+000	-6.192087894305587E-004	1.000000000000000E+000	-2.1665536E-009	40	0	3.1409592E+003	8.599999782745726E-003	-1.4345486E-006	3.7414595E+006
2	0	0	0	0	0	3.359600085968850E+000	2.3051999E+000	2.3064516E+000	-6.468614446930587E-004	1.000000000000000E+000	-2.2959259E-009	40	0	3.1409592E+003	8.799999777693301E-003	-1.4919545E-006	3.5656038E+006
2	0	0	1	0	0	3.359800085963798E+000	2.2952557E+000	2.2965171E+000	-6.658439524471760E-004	1.000000000000000E+000	-2.4290947E-009	40	0	3.1409592E+003	8.999999772640876E-003	-1.5291221E-006	3.4490320E+006
2	0	0	0	0	0	3.360000085958745E+000	2.2853422E+000	2.2866175E+000	-6.876909756101668E-004	1.000000000000000E+000	-2.5666329E-009	40	0	3.1409592E+003	9.199999767588452E-003	-1.5724862E-006	3.3250655E+006
2	0	0	1	0	0	3.360200085953693E+000	2.2754018E+000	2.2766945E+000	-7.145796553231776E-004	1.000000000000000E+000	-2.7095488E-009	40	0	3.1409592E+003	9.399999762536027E-003	-1.6268796E-006	3.1860613E+006
2	0	0	0	0	0	3.360400085948640E+000	2.2654705E+000	2.2667081E+000	-7.385655771940947E-004	1.000000000000000E+000	-2.8572620E-009	40	0	3.1409592E+003	9.599999757483602E-003	-1.6741126E-006	3.0690683E+006
2	0	0	1	0	0	3.360600085943588E+000	2.2552214E+000	2.2564740E+000	-7.786693749949336E-004	1.000000000000000E+000	-3.0129959E-009	40	0	3.1409592E+003	9.799999752431177E-003	-1.7570472E-006	2.8978590E+006
2	0	0	0	0	0	3.360800085938536E+000	2.2452967E+000	2.2465630E+000	-7.972699822857976E-004	1.000000000000000E+000	-3.1724499E-009	40	0	3.1409592E+003	9.999999747378752E-003	-1.7911173E-006	2.8178195E+006
2	0	0	1	0	0	3.361000085933483E+000	2.2354228E+000	2.2366953E+000	-8.278253371827304E-004	1.000000000000000E+000	-3.3380148E-009	40	0	3.1409592E+003	1.019999974232633E-002	-1.8515931E-006	2.7018928E+006
2	0	0	0	0	0	3.361200085928431E+000	2.2254810E+000	2.2267520E+000	-8.519639959558845E-004	1.000000000000000E+000	-3.5084076E-009	40	0	3.1409592E+003	1.039999973727390E-002	-1.8971126E-006	2.6136693E+006
2	0	0	1	0	0	3.361400085923378E+000	2.2152436E+000	2.2164912E+000	-8.924115682020783E-004	1.000000000000000E+000	-3.6868899E-009	40	0	3.1409592E+003	1.059999973222148E-002	-1.9780225E-006	2.4837098E+006
2	0	0	0	0	0	3.361600085918326E+000	2.2053192E+000	2.2065463E+000	-9.199877385981381E-004	1.000000000000000E+000	-3.8708876E-009	40	0	3.1409592E+003	1.079999972716905E-002	-2.0299956E-006	2.3984518E+006
2	0	0	1	0	0	3.361800085913274E+000	2.1954463E+000	2.1967518E+000	-9.496264392510057E-004	1.000000000000000E+000	-4.0608126E-009	40	0	3.1409592E+003	1.099999972211663E-002	-2.0860937E-006	2.3132800E+006
2	0	0	0	0	0	3.362000085908221E+000	2.1851997E+000	2.1864514E+000	-9.980566101148725E-004	1.000000000000000E+000	-4.2604240E-009	40	0	3.1409592E+003	1.119999971706420E-002	-2.1822023E-006	2.1907088E+006
2	0	0	1	0	0	3.362200085903169E+000	2.1752925E+000	2.1765618E+000	-1.027962542138994E-003	1.000000000000000E+000	-4.4660164E-009	40	0	3.1409592E+003	1.139999971201178E-002	-2.2374240E-006	2.1173553E+006
2	0	0	0	0	0	3.362400085898116E+000	2.1654446E+000	2.1666894E+000	-1.059090835042298E-003	1.000000000000000E+000	-4.6778346E-009	40	0	3.1409592E+003	1.159999970695935E-002	-2.2947208E-006	2.0458013E+006
2	0	0	1	0	0	3.362600085893064E+000	2.1552050E+000	2.1564612E+000	-1.112218946218491E-003	1.000000000000000E+000	-4.9002784E-009	40	0	3.1409592E+003	1.179999970190693E-002	-2.3984571E-006	1.9388820E+006
2	0	0	0	0	0	3.362800085888011E+000	2.1453028E+000	2.1465421E+000	-1.131277764216065E-003	1.000000000000000E+000	-5.1265343E-009	40	0	3.1409592E+003	1.199999969685450E-002	-2.4283354E-006	1.8974491E+006
2	0	0	1	0	0	3.363000085882959E+000	2.1354697E+000	2.1367264E+000	-1.174017088487744E-003	1.000000000000000E+000	-5.3613376E-009	40	0	3.1409592E+003	1.219999969180208E-002	-2.5085533E-006	1.8200130E+006
2	0	0	0	0	0	3.363200085877907E+000	2.1251960E+000	2.1264563E+000	-1.226495834998786E-003	1.000000000000000E+000	-5.6066365E-009	40	0	3.1409592E+003	1.239999968674965E-002	-2.6080897E-006	1.7337656E+006
2	0	0	1	0	0	3.363400085872854E+000	2.1153302E+000	2.1165621E+000	-1.260870485566556E-003	1.000000000000000E+000	-5.8588108E-009	40	0	3.1409592E+003	1.259999968169723E-002	-2.6687107E-006	1.6786515E+006
2	0	0	0	0	0	3.363600085867802E+000	2.1051617E+000	2.1064429E+000	-1.314991619437933E-003	1.000000000000000E+000	-6.1218093E-009	40	0	3.1409592E+003	1.279999967664480E-002	-2.7699548E-006	1.6018680E+006
2	0	0	1	0	0	3.363800085862749E+000	2.0952694E+000	2.0965722E+000	-1.354828011244535E-003	1.000000000000000E+000	-6.3927748E-009	40	0	3.1409592E+003	1.299999967159238E-002	-2.8404947E-006	1.5474821E+006
2	0	0	0	0	0	3.364000085857697E+000	2.0854394E+000	2.0866792E+000	-1.398369437083602E-003	1.000000000000000E+000	-6.6724488E-009	40	0	3.1409592E+003	1.319999966653995E-002	-2.9179484E-006	1.4922231E+006
2	0	0	1	0	0	3.364200085852644E+000	2.0752311E+000	2.0765357E+000	-1.452681608498096E-003	1.000000000000000E+000	-6.9629849E-009	40	0	3.1409592E+003	1.339999966148753E-002	-3.0165452E-006	1.4294500E+006
2	0	0	0	0	0	3.364400085847592E+000	2.0653679E+000	2.0666060E+000	-1.493472838774323E-003	1.000000000000000E+000	-7.2616797E-009	40	0	3.1409592E+003	1.359999965643510E-002	-3.0864201E-006	1.3837588E+006
2	0	0	1	0	0	3.364600085842540E+000	2.0552049E+000	2.0565038E+000	-1.552329980768263E-003	1.000000000000000E+000	-7.5721456E-009	40	0	3.1409592E+003	1.379999965138268E-002	-3.1923726E-006	1.3247853E+006
2	0	0	0	0	0	3.364800085837487E+000	2.0453331E+000	2.0465083E+000	-1.596482470631599E-003	1.000000000000000E+000	-7.8914422E-009	40	0	3.1409592E+003	1.399999964633025E-002	-3.2672147E-006	1.2818859E+006
2	0	0	1	0	0	3.365000085832435E+000	2.0351846E+000	2.0364013E+000	-1.664506155066192E-003	1.000000000000000E+000	-8.2243430E-009	40	0	3.1409592E+003	1.419999964127783E-002	-3.3896024E-006	1.2234268E+006
2	0	0	0	0	0	3.365200085827382E+000	2.0253232E+000	2.0265193E+000	-1.704380963928998E-003	1.000000000000000E+000	-8.5652196E-009	40	0	3.1409592E+003	1.439999963622540E-002	-3.4539610E-006	1.1890060E+006
2	0	0	1	0	0	3.365400085822330E+000	2.0152035E+000	2.0164716E+000	-1.765644410625100E-003	1.000000000000000E+000	-8.9183487E-009	40	0	3.1409592E+003	1.459999963117298E-002	-3.5603719E-006	1.1420599E+006
2	0	0	0	0	0	3.365600085817277E+000	2.0053287E+000	2.0065722E+000	-1.815831405110657E-003	1.000000000000000E+000	-9.2815142E-009	40	0	3.1409592E+003	1.479999962612055E-002	-3.6435970E-006	1.1050433E+006
2	0	0	1	0	0	3.365800085812225E+000	1.9951876E+000	1.9964273E+000	-1.876292750239372E-003	1.000000000000000E+000	-9.6567732E-009	40	0	3.1409592E+003	1.499999962106813E-002	-3.7458822E-006	1.0640276E+006
2	0	0	0	0	0	3.366000085807173E+000	1.9853452E+000	1.9865566E+000	-1.924417330883443E-003	1.000000000000000E+000	-1.0041656E-008	40	0	3.1409592E+003	1.519999961601570E-002	-3.8229641E-006	1.0322899E+006
2	0	0	1	0	0	3.366200085802120E+000	1.9752017E+000	1.9764625E+000	-1.986902905628085E-003	1.000000000000000E+000	-1.0439037E-008	40	0	3.1409592E+003	1.539999961096328E-002	-3.9270390E-006	9.9474538E+005
2	0	0	0	0	0	3.366400085797068E+000	1.9653528E+000	1.9665624E+000	-2.037128200754523E-003	1.000000000000000E+000	-1.0846462E-008	40	0	3.1409592E+003	1.559999960591085E-002	-4.0061395E-006	9.6536013E+005
2	0	0	1	0	0	3.366600085792015E+000	1.9552156E+000	1.9563981E+000	-2.100492361932993E-003	1.000000000000000E+000	-1.1266561E-008	40	0	3.1409592E+003	1.579999960085843E-002	-4.1093995E-006	9.3139981E+005
2	0	0	0	0	0	3.366800085786963E+000	1.9453733E+000	1.9465885E+000	-2.146134385839105E-003	1.000000000000000E+000	-1.1695788E-008	40	0	3.1409592E+003	1.599999959580600E-002	-4.1776407E-006	9.0702081E+005
2	0	0	1	0	0	3.367000085781910E+000	1.9352390E+000	1.9364997E+000	-2.214387292042375E-003	1.000000000000000E+000	-1.2138665E-008	40	0	3.1409592E+003	1.619999959075358E-002	-4.2881602E-006	8.7450813E+005
2	0	0	0	0	0	3.367200085776858E+000	1.9253821E+000	1.9265918E+000	-2.254796680063009E-003	1.000000000000000E+000	-1.2589625E-008	40	0	3.1409592E+003	1.639999958570115E-002	-4.3440727E-006	8.5444144E+005
2	0	0	1	0	0	3.367400085771806E+000	1.9152632E+000	1.9164724E+000	-2.316900296136737E-003	1.000000000000000E+000	-1.3053005E-008	40	0	3.1409592E+003	1.659999958064873E-002	-4.4402755E-006	8.2717088E+005
2	0	0	0	0	0	3.367600085766753E+000	1.9053900E+000	1.9065979E+000	-2.349823713302612E-003	1.000000000000000E+000	-1.3522969E-008	40	0	3.1409592E+003	1.679999957559630E-002	-4.4801686E-006	8.1137913E+005
2	0	0	1	0	0	3.367800085761701E+000	1.8952516E+000	1.8964744E+000	-2.408566186204553E-003	1.000000000000000E+000	-1.4004683E-008	40	0	3.1409592E+003	1.699999957054388E-002	-4.5677839E-006	7.8738725E+005
2	0	0	0	0	0	3.368000085756648E+000	1.8853550E+000	1.8866066E+000	-2.453558845445514E-003	1.000000000000000E+000	-1.4495395E-008	40	0	3.1409592E+003	1.719999956549145E-002	-4.6289001E-006	7.6892656E+005
2	0	0	1	0	0	3.368200085751596E+000	1.8752061E+000	1.8764421E+000	-2.509971847757697E-003	1.000000000000000E+000	-1.4997390E-008	40	0	3.1409592E+003	1.739999956043903E-002	-4.7098169E-006	7.4759488E+005
2	0	0	0	0	0	3.368400085746543E+000	1.8653474E+000	1.8665972E+000	-2.537700813263655E-003	1.000000000000000E+000	-1.5504929E-008	40	0	3.1409592E+003	1.759999955538660E-002	-4.7368653E-006	7.3554656E+005
2	0	0	1	0	0	3.368600085741491E+000	1.8551911E+000	1.8564520E+000	-2.595030236989260E-003	1.000000000000000E+000	-1.6023936E-008	40	0	3.1409592E+003	1.779999955033418E-002	-4.8175489E-006	7.1538744E+005
2	0	0	0	0	0	3.368800085736439E+000	1.8452783E+000	1.8464535E+000	-2.624821616336703E-003	1.000000000000000E+000	-1.6548899E-008	40	0	3.1409592E+003	1.799999954528175E-002	-4.8466113E-006	7.0345869E+005
2	0	0	1	0	0	3.369000085731386E+000	1.8354582E+000	1.8367236E+000	-2.659998368471861E-003	1.000000000000000E+000	-1.7080898E-008	40	0	3.1409592E+003	1.819999954022933E-002	-4.8856818E-006	6.9049800E+005
2	0	0	0	0	0	3.369200085726334E+000	1.8252183E+000	1.8264490E+000	-2.710643922910094E-003	1.000000000000000E+000	-1.7623028E-008	40	0	3.1409592E+003	1.839999953517690E-002	-4.9508531E-006	6.7380631E+005
2	0	0	1	0	0	3.369400085721281E+000	1.8153287E+000	1.8165388E+000	-2.742955926805735E-003	1.000000000000000E+000	-1.8171619E-008	40	0	3.1409592E+003	1.859999953012448E-002	-4.9826858E-006	6.6225594E+005
2	0	0	0	0	0	3.369600085716229E+000	1.8051543E+000	1.8063679E+000	-2.791424514725804E-003	1.000000000000000E+000	-1.8729905E-008	40	0	3.1409592E+003	1.879999952507205E-002	-5.0423396E-006	6.4711325E+005
2	0	0	1	0	0	3.369800085711177E+000	1.7952559E+000	1.7965213E+000	-2.824385883286595E-003	1.000000000000000E+000	-1.9294781E-008	40	0	3.1409592E+003	1.899999952001963E-002	-5.0740696E-006	6.3607500E+005
2	0	0	0	0	0	3.370000085706124E+000	1.7854080E+000	1.7865916E+000	-2.847417024895549E-003	1.000000000000000E+000	-1.9864265E-008	40	0	3.1409592E+003	1.919999951496720E-002	-5.0871713E-006	6.2744294E+005
2	0	0	1	0	0	3.370200085701072E+000	1.7751781E+000	1.7763844E+000	-2.889277879148722E-003	1.000000000000000E+000	-2.0442121E-008	40	0	3.1409592E+003	1.939999950991478E-002	-5.1324682E-006	6.1481950E+005
2	0	0	0	0	0	3.370400085696019E+000	1.7652503E+000	1.7664741E+000	-2.908833092078567E-003	1.000000000000000E+000	-2.1023887E-008	40	0	3.1409592E+003	1.959999950486235E-002	-5.1383786E-006	6.0727931E+005
2	0	0	1	0	0	3.370600085690967E+000	1.7553818E+000	1.7565849E+000	-2.947141882032156E-003	1.000000000000000E+000	-2.1613316E-008	40	0	3.1409592E+003	1.979999949980993E-002	-5.1769048E-006	5.9602994E+005
2	0	0	0	0	0	3.370800085685914E+000	1.7454431E+000	1.7466294E+000	-2.967040985822678E-003	1.000000000000000E+000	-2.2206724E-008	40	0	3.1409592E+003	1.999999949475750E-002	-5.1823208E-006	5.8867719E+005
2	0	0	1	0	0	3.371000085680862E+000	1.7352301E+000	1.7364886E+000	-2.997138071805239E-003	1.000000000000000E+000	-2.2806152E-008	40	0	3.1409592E+003	2.019999948970508E-002	-5.2044961E-006	5.7938225E+005
2	0	0	0	0	0	3.371200085675810E+000	1.7252924E+000	1.7264845E+000	-3.005617298185825E-003	1.000000000000000E+000	-2.3407274E-008	40	0	3.1409592E+003	2.039999948465265E-002	-5.1891516E-006	5.7441931E+005
2	0	0	1	0	0	3.371400085670757E+000	1.7153869E+000	1.7166004E+000	-3.021429525688291E-003	1.000000000000000E+000	-2.4011561E-008	40	0	3.1409592E+003	2.059999947960023E-002	-5.1865873E-006	5.6814181E+005
2	0	0	0	0	0	3.371600085665705E+000	1.7054135E+000	1.7065947E+000	-3.035866888239980E-003	1.000000000000000E+000	-2.4618734E-008	40	0	3.1409592E+003	2.079999947454780E-002	-5.1809943E-006	5.6214413E+005
2	0	0	1	0	0	3.371800085660652E+000	1.6954631E+000	1.6966543E+000	-3.044537035748363E-003	1.000000000000000E+000	-2.5227642E-008	40	0	3.1409592E+003	2.099999946949538E-002	-5.1655270E-006	5.5727825E+005
2	0	0	0	0	0	3.372000085655600E+000	1.6851749E+000	1.6864307E+000	-3.054276341572404E-003	1.000000000000000E+000	-2.5838496E-008	40	0	3.1409592E+003	2.119999946444295E-002	-5.1508255E-006	5.5215394E+005
2	0	0	1	0	0	3.372200085650547E+000	1.6752021E+000	1.6763724E+000	-3.054391127079725E-003	1.000000000000000E+000	-2.6449374E-008	40	0	3.1409592E+003	2.139999945939053E-002	-5.1202969E-006	5.4884013E+005
2	0	0	0	0	0	3.372400085645495E+000	1.6652327E+000	1.6664090E+000	-3.044116776436567E-003	1.000000000000000E+000	-2.7058197E-008	40	0	3.1409592E+003	2.159999945433810E-002	-5.0727435E-006	5.4741956E+005
2	0	0	1	0	0	3.372600085640443E+000	1.6552329E+000	1.6564077E+000	-3.033078741282225E-003	1.000000000000000E+000	-2.7664814E-008	40	0	3.1409592E+003	2.179999944928568E-002	-5.0240151E-006	5.4611431E+005
2	0	0	0	0	0	3.372800085635390E+000	1.6452006E+000	1.6463968E+000	-3.025745507329702E-003	1.000000000000000E+000	-2.8269962E-008	40	0	3.1409592E+003	2.199999944423325E-002	-4.9815776E-006	5.4412931E+005
2	0	0	1	0	0	3.373000085630338E+000	1.6351659E+000	1.6363758E+000	-3.012683009728789E-003	1.000000000000000E+000	-2.8872499E-008	40	0	3.1409592E+003	2.219999943918083E-002	-4.9298815E-006	5.4316231E+005
2	0	0	0	0	0	3.373200085625285E+000	1.6254761E+000	1.6266068E+000	-2.986443694680929E-003	1.000000000000000E+000	-2.9469788E-008	40	0	3.1409592E+003	2.239999943412840E-002	-4.8577699E-006	5.4466350E+005
2	0	0	1	0	0	3.373400085620233E+000	1.6154350E+000	1.6166520E+000	-2.983235521242023E-003	1.000000000000000E+000	-3.0066435E-008	40	0	3.1409592E+003	2.259999942907598E-002	-4.8228535E-006	5.4191231E+005
2	0	0	0	0	0	3.373600085615180E+000	1.6053525E+000	1.6065335E+000	-2.974641742184758E-003	1.000000000000000E+000	-3.0661365E-008	40	0	3.1409592E+003	2.279999942402355E-002	-4.7788617E-006	5.4007631E+005
2	0	0	1	0	0	3.373800085610128E+000	1.5953424E+000	1.5965372E+000	-2.965666120871902E-003	1.000000000000000E+000	-3.1254498E-008	40	0	3.1409592E+003	2.299999941897113E-002	-4.7347962E-006	5.3834019E+005
2	0	0	0	0	0	3.374000085605076E+000	1.5853152E+000	1.5864779E+000	-2.958944067358971E-003	1.000000000000000E+000	-3.1846287E-008	40	0	3.1409592E+003	2.319999941391870E-002	-4.6942992E-006	5.3616350E+005
2	0	0	1	0	0	3.374200085600023E+000	1.5752871E+000	1.5764787E+000	-2.946912776678801E-003	1.000000000000000E+000	-3.2435668E-008	40	0	3.1409592E+003	2.339999940886628E-002	-4.6457453E-006	5.3495944E+005
2	0	0	0	0	0	3.374400085594971E+000	1.5652659E+000	1.5664827E+000	-2.933124545961618E-003	1.000000000000000E+000	-3.3022292E-008	40	0	3.1409592E+003	2.359999940381385E-002	-4.5946886E-006	5.3406619E+005
2	0	0	1	0	0	3.374600085589918E+000	1.5552280E+000	1.5563860E+000	-2.931558759883046E-003	1.000000000000000E+000	-3.3608604E-008	40	0	3.1409592E+003	2.379999939876143E-002	-4.5626371E-006	5.3090731E+005
2	0	0	0	0	0	3.374800085584866E+000	1.5451846E+000	1.5463257E+000	-2.925447653979063E-003	1.000000000000000E+000	-3.4193693E-008	40	0	3.1409592E+003	2.399999939370900E-002	-4.5236948E-006	5.2857744E+005
2	0	0	1	0	0	3.375000085579813E+000	1.5351796E+000	1.5363269E+000	-2.921475330367684E-003	1.000000000000000E+000	-3.4777990E-008	40	0	3.1409592E+003	2.419999938865658E-002	-4.4883409E-006	5.2587363E+005
2	0	0	0	0	0	3.375200085574761E+000	1.5251603E+000	1.5263404E+000	-2.926593413576484E-003	1.000000000000000E+000	-3.5363307E-008	40	0	3.1409592E+003	2.439999938360415E-002	-4.4669778E-006	5.2154166E+005
2	0	0	1	0	0	3.375400085569709E+000	1.5154811E+000	1.5166355E+000	-2.907916670665145E-003	1.000000000000000E+000	-3.5944893E-008	40	0	3.1409592E+003	2.459999937855173E-002	-4.4102499E-006	5.2155400E+005
2	0	0	0	0	0	3.375600085564656E+000	1.5051638E+000	1.5063751E+000	-2.929687267169356E-003	1.000000000000000E+000	-3.6530828E-008	40	0	3.1409592E+003	2.479999937349930E-002	-4.4132080E-006	5.1417606E+005
2	0	0	1	0	0	3.375800085559604E+000	1.4954383E+000	1.4965744E+000	-2.931138733401895E-003	1.000000000000000E+000	-3.7117058E-008	40	0	3.1409592E+003	2.499999936844688E-002	-4.3866671E-006	5.1057781E+005
2	0	0	0	0	0	3.376000085554551E+000	1.4851733E+000	1.4863510E+000	-2.952107228338718E-003	1.000000000000000E+000	-3.7707480E-008	40	0	3.1409592E+003	2.519999936339445E-002	-4.3878676E-006	5.0348816E+005
2	0	0	1	0	0	3.376200085549499E+000	1.4751779E+000	1.4763807E+000	-2.970058470964432E-003	1.000000000000000E+000	-3.8301490E-008	40	0	3.1409592E+003	2.539999935834203E-002	-4.3849368E-006	4.9708809E+005
2	0	0	0	0	0	3.376400085544446E+000	1.4652436E+000	1.4663838E+000	-2.976475050672889E-003	1.000000000000000E+000	-3.8896786E-008	40	0	3.1409592E+003	2.559999935328960E-002	-4.3646546E-006	4.9265784E+005
2	0	0	1	0	0	3.376600085539394E+000	1.4552999E+000	1.4564767E+000	-2.999009564518929E-003	1.000000000000000E+000	-3.9496587E-008	40	0	3.1409592E+003	2.579999934823718E-002	-4.3679875E-006	4.8565256E+005
2	0	0	0	0	0	3.376800085534342E+000	1.4453201E+000	1.4465259E+000	-3.018412273377180E-003	1.000000000000000E+000	-4.0100268E-008	40	0	3.1409592E+003	2.599999934318475E-002	-4.3662117E-006	4.7923406E+005
2	0	0	1	0	0	3.377000085529289E+000	1.4353907E+000	1.4365491E+000	-3.050495404750109E-003	1.000000000000000E+000	-4.0710368E-008	40	0	3.1409592E+003	2.619999933813233E-002	-4.3821865E-006	4.7092322E+005
2	0	0	0	0	0	3.377200085524237E+000	1.4254515E+000	1.4266809E+000	-3.081241389736533E-003	1.000000000000000E+000	-4.1326615E-008	40	0	3.1409592E+003	2.639999933307990E-002	-4.3959485E-006	4.6302147E+005
2	0	0	1	0	0	3.377400085519184E+000	1.4152189E+000	1.4163831E+000	-3.110039746388793E-003	1.000000000000000E+000	-4.1948624E-008	40	0	3.1409592E+003	2.659999932802748E-002	-4.4050080E-006	4.5542284E+005
2	0	0	0	0	0	3.377600085514132E+000	1.4053155E+000	1.4064819E+000	-3.145713359117508E-003	1.000000000000000E+000	-4.2577767E-008	40	0	3.1409592E+003	2.679999932297505E-002	-4.4243889E-006	4.4711063E+005
2	0	0	1	0	0	3.377800085509080E+000	1.3954059E+000	1.3965822E+000	-3.180279163643718E-003	1.000000000000000E+000	-4.3213824E-008	40	0	3.1409592E+003	2.699999931792263E-002	-4.4415215E-006	4.3913825E+005
2	0	0	0	0	0	3.378000085504027E+000	1.3851845E+000	1.3864025E+000	-3.220077371224761E-003	1.000000000000000E+000	-4.3857838E-008	40	0	3.1409592E+003	2.719999931287020E-002	-4.4643234E-006	4.3054944E+005
2	0	0	1	0	0	3.378200085498975E+000	1.3752929E+000	1.3764483E+000	-3.263504011556506E-003	1.000000000000000E+000	-4.4510539E-008	40	0	3.1409592E+003	2.739999930781778E-002	-4.4920444E-006	4.2177006E+005
2	0	0	0	0	0	3.378400085493922E+000	1.3654178E+000	1.3665259E+000	-3.304066136479378E-003	1.000000000000000E+000	-4.5171351E-008	40	0	3.1409592E+003	2.759999930276535E-002	-4.5150919E-006	4.1358916E+005
2	0	0	1	0	0	3.378600085488870E+000	1.3552209E+000	1.3563247E+000	-3.363840049132705E-003	1.000000000000000E+000	-4.5844121E-008	40	0	3.1409592E+003	2.779999929771293E-002	-4.5624593E-006	4.0320725E+005
2	0	0	0	0	0	3.378800085483817E+000	1.3453482E+000	1.3464735E+000	-3.401117399334908E-003	1.000000000000000E+000	-4.6524345E-008	40	0	3.1409592E+003	2.799999929266050E-002	-4.5795141E-006	3.9589150E+005
2	0	0	1	0	0	3.379000085478765E+000	1.3352026E+000	1.3363198E+000	-3.457262879237533E-003	1.000000000000000E+000	-4.7215796E-008	40	0	3.1409592E+003	2.819999928760808E-002	-4.6200089E-006	3.8652538E+005
2	0	0	0	0	0	3.379200085473713E+000	1.3253195E+000	1.3264620E+000	-3.507679328322411E-003	1.000000000000000E+000	-4.7917332E-008	40	0	3.1409592E+003	2.839999928255565E-002	-4.6528035E-006	3.7815944E+005
2	0	0	1	0	0	3.379400085468660E+000	1.3151624E+000	1.3163198E+000	-3.557140473276377E-003	1.000000000000000E+000	-4.8628760E-008	40	0	3.1409592E+003	2.859999927750323E-002	-4.6823343E-006	3.7005000E+005
2	0	0	0	0	0	3.379600085463608E+000	1.3053209E+000	1.3064499E+000	-3.611720167100430E-003	1.000000000000000E+000	-4.9351105E-008	40	0	3.1409592E+003	2.879999927245080E-002	-4.7185313E-006	3.6172513E+005
2	0	0	1	0	0	3.379800085458555E+000	1.2954761E+000	1.2966226E+000	-3.655910491943359E-003	1.000000000000000E+000	-5.0082289E-008	40	0	3.1409592E+003	2.899999926739838E-002	-4.7403364E-006	3.5466475E+005
2	0	0	0	0	0	3.380000085453503E+000	1.2853141E+000	1.2864870E+000	-3.735850797966123E-003	1.000000000000000E+000	-5.0829456E-008	40	0	3.1409592E+003	2.919999926234595E-002	-4.8061233E-006	3.4436253E+005
2	0	0	1	0	0	3.380200085448450E+000	1.2754527E+000	1.2765746E+000	-3.780270926654339E-003	1.000000000000000E+000	-5.1585513E-008	40	0	3.1409592E+003	2.939999925729353E-002	-4.8257980E-006	3.3769394E+005
2	0	0	0	0	0	3.380400085443398E+000	1.2653705E+000	1.2665378E+000	-3.856697119772434E-003	1.000000000000000E+000	-5.2356850E-008	40	0	3.1409592E+003	2.959999925224110E-002	-4.8846528E-006	3.2839959E+005
2	0	0	1	0	0	3.380600085438346E+000	1.2551765E+000	1.2563244E+000	-3.913415595889091E-003	1.000000000000000E+000	-5.3139534E-008	40	0	3.1409592E+003	2.979999924718868E-002	-4.9165196E-006	3.2103016E+005
2	0	0	0	0	0	3.380800085433293E+000	1.2454166E+000	1.2465132E+000	-3.978765569627285E-003	1.000000000000000E+000	-5.3935288E-008	40	0	3.1409592E+003	2.999999924213625E-002	-4.9595842E-006	3.1329147E+005
2	0	0	1	0	0	3.381000085428241E+000	1.2352613E+000	1.2364033E+000	-4.054886288940907E-003	1.000000000000000E+000	-5.4746263E-008	40	0	3.1409592E+003	3.019999923708383E-002	-5.0134749E-006	3.0491691E+005
2	0	0	0	0	0	3.381200085423188E+000	1.2254665E+000	1.2265766E+000	-4.105799365788698E-003	1.000000000000000E+000	-5.5567423E-008	40	0	3.1409592E+003	3.039999923203141E-002	-5.0360773E-006	2.9874244E+005
2	0	0	1	0	0	3.381400085418136E+000	1.2153722E+000	1.2165315E+000	-4.167979117482901E-003	1.000000000000000E+000	-5.6401021E-008	40	0	3.1409592E+003	3.059999922697898E-002	-5.0704780E-006	2.9187563E+005
2	0	0	0	0	0	3.381600085413083E+000	1.2051986E+000	1.2063882E+000	-4.266558680683374E-003	1.000000000000000E+000	-5.7254333E-008	40	0	3.1409592E+003	3.079999922192656E-002	-5.1471261E-006	2.8275441E+005
2	0	0	1	0	0	3.381800085408031E+000	1.1953940E+000	1.1965629E+000	-4.325797781348228E-003	1.000000000000000E+000	-5.8119490E-008	40	0	3.1409592E+003	3.099999921687413E-002	-5.1760890E-006	2.7661091E+005
2	0	0	0	0	0	3.382000085402979E+000	1.1853702E+000	1.1865730E+000	-4.408946726471186E-003	1.000000000000000E+000	-5.9001280E-008	40	0	3.1409592E+003	3.119999921182171E-002	-5.2315372E-006	2.6912847E+005
2	0	0	1	0	0	3.382200085397926E+000	1.1752229E+000	1.1763414E+000	-4.501070827245712E-003	1.000000000000000E+000	-5.9901495E-008	40	0	3.1409592E+003	3.139999920676928E-002	-5.2947962E-006	2.6134702E+005
2	0	0	0	0	0	3.382400085392874E+000	1.1651506E+000	1.1663452E+000	-4.573601298034191E-003	1.000000000000000E+000	-6.0816213E-008	40	0	3.1409592E+003	3.159999920171686E-002	-5.3343979E-006	2.5501681E+005
2	0	0	1	0	0	3.382600085387821E+000	1.1554399E+000	1.1565757E+000	-4.648805595934391E-003	1.000000000000000E+000	-6.1745979E-008	40	0	3.1409592E+003	3.179999919666443E-002	-5.3766953E-006	2.4878986E+005
2	0	0	0	0	0	3.382800085382769E+000	1.1453342E+000	1.1465193E+000	-4.721527453511953E-003	1.000000000000000E+000	-6.2690283E-008	40	0	3.1409592E+003	3.199999919161201E-002	-5.4133225E-006	2.4282805E+005
2	0	0	1	0	0	3.383000085377716E+000	1.1352371E+000	1.1364105E+000	-4.793141037225723E-003	1.000000000000000E+000	-6.3648912E-008	40	0	3.1409592E+003	3.219999918655958E-002	-5.4469756E-006	2.3709097E+005
2	0	0	0	0	0	3.383200085372664E+000	1.1254655E+000	1.1266181E+000	-4.856161773204803E-003	1.000000000000000E+000	-6.4620139E-008	40	0	3.1409592E+003	3.239999918150716E-002	-5.4710399E-006	2.3199766E+005
2	0	0	1	0	0	3.383400085367612E+000	1.1153570E+000	1.1165169E+000	-4.941792692989111E-003	1.000000000000000E+000	-6.5608504E-008	40	0	3.1409592E+003	3.259999917645473E-002	-5.5175951E-006	2.2593359E+005
2	0	0	0	0	0	3.383600085362559E+000	1.1052215E+000	1.1063849E+000	-5.019212607294321E-003	1.000000000000000E+000	-6.6612344E-008	40	0	3.1409592E+003	3.279999917140231E-002	-5.5531809E-006	2.2042997E+005
2	0	0	1	0	0	3.383800085357507E+000	1.0951570E+000	1.0963469E+000	-5.099764093756676E-003	1.000000000000000E+000	-6.7632293E-008	40	0	3.1409592E+003	3.299999916634988E-002	-5.5911105E-006	2.1497992E+005
2	0	0	0	0	0	3.384000085352454E+000	1.0854001E+000	1.0865196E+000	-5.173135083168745E-003	1.000000000000000E+000	-6.8666921E-008	40	0	3.1409592E+003	3.319999916129746E-002	-5.6207127E-006	2.1003117E+005
2	0	0	1	0	0	3.384200085347402E+000	1.0753198E+000	1.0764848E+000	-5.242724902927876E-003	1.000000000000000E+000	-6.9715469E-008	40	0	3.1409592E+003	3.339999915624503E-002	-5.6437138E-006	2.0532925E+005
2	0	0	0	0	0	3.384400085342349E+000	1.0652168E+000	1.0663738E+000	-5.326216574758291E-003	1.000000000000000E+000	-7.0780715E-008	40	0	3.1409592E+003	3.359999915119261E-002	-5.6797380E-006	2.0021225E+005
2	0	0	1	0	0	3.384600085337297E+000	1.0554352E+000	1.0566175E+000	-5.390459671616554E-003	1.000000000000000E+000	-7.1858800E-008	40	0	3.1409592E+003	3.379999914614018E-002	-5.6956542E-006	1.9601622E+005
2	0	0	0	0	0	3.384800085332245E+000	1.0453641E+000	1.0465307E+000	-5.482621956616640E-003	1.000000000000000E+000	-7.2955331E-008	40	0	3.1409592E+003	3.399999914108776E-002	-5.7377324E-006	1.9088144E+005
2	0	0	1	0	0	3.385000085327192E+000	1.0352325E+000	1.0363606E+000	-5.557405762374401E-003	1.000000000000000E+000	-7.4066811E-008	40	0	3.1409592E+003	3.419999913603533E-002	-5.7594766E-006	1.8648281E+005
2	0	0	0	0	0	3.385200085322140E+000	1.0251886E+000	1.0263277E+000	-5.632190033793449E-003	1.000000000000000E+000	-7.5193249E-008	40	0	3.1409592E+003	3.439999913098291E-002	-5.7804727E-006	1.8222534E+005
2	0	0	1	0	0	3.385400085317087E+000	1.0154234E+000	1.0165381E+000	-5.697464104741812E-003	1.000000000000000E+000	-7.6332739E-008	40	0	3.1409592E+003	3.459999912593048E-002	-5.7916895E-006	1.7841941E+005
2	0	0	0	0	0	3.385600085312035E+000	1.0053248E+000	1.0065271E+000	-5.794515367597342E-003	1.000000000000000E+000	-7.7491642E-008	40	0	3.1409592E+003	3.479999912087806E-002	-5.8323367E-006	1.7370341E+005
2	0	0	1	0	0	3.385800085306983E+000	9.9519646E-001	9.9633348E-001	-5.889198277145624E-003	1.000000000000000E+000	-7.8669480E-008	40	0	3.1409592E+003	3.499999911582563E-002	-5.8676055E-006	1.6917981E+005
2	0	0	0	0	0	3.386000085301930E+000	9.8516792E-001	9.8630458E-001	-5.988426972180605E-003	1.000000000000000E+000	-7.9867171E-008	40	0	3.1409592E+003	3.519999911077321E-002	-5.9064128E-006	1.6470178E+005
2	0	0	1	0	0	3.386200085296878E+000	9.7546524E-001	9.7661561E-001	-6.078450474888086E-003	1.000000000000000E+000	-8.1082860E-008	40	0	3.1409592E+003	3.539999910572078E-002	-5.9363097E-006	1.6066852E+005
2	0	0	0	0	0	3.386400085291825E+000	9.6544349E-001	9.6659732E-001	-6.175195798277855E-003	1.000000000000000E+000	-8.2317896E-008	40	0	3.1409592E+003	3.559999910066836E-002	-5.9689278E-006	1.5652902E+005
2	0	0	1	0	0	3.386600085286773E+000	9.5539284E-001	9.5651197E-001	-6.264112424105406E-003	1.000000000000000E+000	-8.3570718E-008	40	0	3.1409592E+003	3.579999909561593E-002	-5.9916983E-006	1.5269713E+005
2	0	0	0	0	0	3.386800085281720E+000	9.4536328E-001	9.4650126E-001	-6.384729407727718E-003	1.000000000000000E+000	-8.4847663E-008	40	0	3.1409592E+003	3.599999909056351E-002	-6.0431544E-006	1.4824453E+005
2	0	0	1	0	0	3.387000085276668E+000	9.3530917E-001	9.3642384E-001	-6.494652014225721E-003	1.000000000000000E+000	-8.6146599E-008	40	0	3.1409592E+003	3.619999908551108E-002	-6.0817470E-006	1.4418383E+005
2	0	0	0	0	0	3.387200085271616E+000	9.2535460E-001	9.2648804E-001	-6.604994647204876E-003	1.000000000000000E+000	-8.7467598E-008	40	0	3.1409592E+003	3.639999908045866E-002	-6.1194487E-006	1.4027083E+005
2	0	0	1	0	0	3.387400085266563E+000	9.1536641E-001	9.1648811E-001	-6.700709462165833E-003	1.000000000000000E+000	-8.8807738E-008	40	0	3.1409592E+003	3.659999907540623E-002	-6.1411206E-006	1.3677478E+005
2	0	0	0	0	0	3.387600085261511E+000	9.0537965E-001	9.0649712E-001	-6.817507091909647E-003	1.000000000000000E+000	-9.0171241E-008	40	0	3.1409592E+003	3.679999907035381E-002	-6.1800506E-006	1.3296606E+005
2	0	0	1	0	0	3.387800085256458E+000	8.9534688E-001	8.9649838E-001	-6.941447034478188E-003	1.000000000000000E+000	-9.1559528E-008	40	0	3.1409592E+003	3.699999906530138E-002	-6.2229960E-006	1.2915152E+005
2	0	0	0	0	0	3.388000085251406E+000	8.8538033E-001	8.8658112E-001	-7.053241599351168E-003	1.000000000000000E+000	-9.2970176E-008	40	0	3.1409592E+003	3.719999906024896E-002	-6.2532708E-006	1.2569839E+005
2	0	0	1	0	0	3.388200085246353E+000	8.7543619E-001	8.7663287E-001	-7.175271864980459E-003	1.000000000000000E+000	-9.4405230E-008	40	0	3.1409592E+003	3.739999905519653E-002	-6.2900790E-006	1.2217416E+005
2	0	0	0	0	0	3.388400085241301E+000	8.6545390E-001	8.6663115E-001	-7.294857874512672E-003	1.000000000000000E+000	-9.5864202E-008	40	0	3.1409592E+003	3.759999905014411E-002	-6.3219509E-006	1.1880028E+005
2	0	0	1	0	0	3.388600085236249E+000	8.5517049E-001	8.5629898E-001	-7.443661801517010E-003	1.000000000000000E+000	-9.7352931E-008	40	0	3.1409592E+003	3.779999904509168E-002	-6.3739999E-006	1.1503733E+005
2	0	0	0	0	0	3.388800085231196E+000	8.4521264E-001	8.4634084E-001	-7.589831016957760E-003	1.000000000000000E+000	-9.8870899E-008	40	0	3.1409592E+003	3.799999904003926E-002	-6.4235837E-006	1.1150984E+005
2	0	0	1	0	0	3.389000085226144E+000	8.3534664E-001	8.3653557E-001	-7.710409816354513E-003	1.000000000000000E+000	-1.0041298E-007	40	0	3.1409592E+003	3.819999903498683E-002	-6.4500323E-006	1.0849430E+005
2	0	0	0	0	0	3.389200085221091E+000	8.2547235E-001	8.2659602E-001	-7.836870849132538E-003	1.000000000000000E+000	-1.0198035E-007	40	0	3.1409592E+003	3.839999902993441E-002	-6.4779265E-006	1.0547527E+005
2	0	0	1	0	0	3.389400085216039E+000	8.1518435E-001	8.1632799E-001	-7.992512546479702E-003	1.000000000000000E+000	-1.0357886E-007	40	0	3.1409592E+003	3.859999902488198E-002	-6.5245117E-006	1.0213659E+005
2	0	0	0	0	0	3.389600085210986E+000	8.0524814E-001	8.0640292E-001	-8.125695399940014E-003	1.000000000000000E+000	-1.0520399E-007	40	0	3.1409592E+003	3.879999901982956E-002	-6.5525846E-006	9.9241094E+004
2	0	0	1	0	0	3.389800085205934E+000	7.9540354E-001	7.9651982E-001	-8.306697010993958E-003	1.000000000000000E+000	-1.0686534E-007	40	0	3.1409592E+003	3.899999901477713E-002	-6.6164489E-006	9.5888875E+004
2	0	0	0	0	0	3.390000085200882E+000	7.8515518E-001	7.8628761E-001	-8.451720699667931E-003	1.000000000000000E+000	-1.0855568E-007	40	0	3.1409592E+003	3.919999900972471E-002	-6.6454832E-006	9.3032844E+004
2	0	0	1	0	0	3.390200085195829E+000	7.7539027E-001	7.7652621E-001	-8.617902174592018E-003	1.000000000000000E+000	-1.1027926E-007	40	0	3.1409592E+003	3.939999900467228E-002	-6.6920270E-006	9.0106180E+004
2	0	0	0	0	0	3.390400085190777E+000	7.6517904E-001	7.6633495E-001	-8.786262013018131E-003	1.000000000000000E+000	-1.1203652E-007	40	0	3.1409592E+003	3.959999899961986E-002	-6.7332198E-006	8.7219680E+004
2	0	0	1	0	0	3.390600085185724E+000	7.5536758E-001	7.5649261E-001	-8.953323587775230E-003	1.000000000000000E+000	-1.1382718E-007	40	0	3.1409592E+003	3.979999899456743E-002	-6.7731230E-006	8.4492938E+004
2	0	0	0	0	0	3.390800085180672E+000	7.4522966E-001	7.4636322E-001	-9.070885367691517E-003	1.000000000000000E+000	-1.1564136E-007	40	0	3.1409592E+003	3.999999898951501E-002	-6.7701753E-006	8.2281188E+004
2	0	0	1	0	0	3.391000085175619E+000	7.3542100E-001	7.3655039E-001	-9.255859069526196E-003	1.000000000000000E+000	-1.1749253E-007	40	0	3.1409592E+003	4.019999898446258E-002	-6.8174068E-006	7.9576664E+004
2	0	0	0	0	0	3.391200085170567E+000	7.2545683E-001	7.2660500E-001	-9.402333758771420E-003	1.000000000000000E+000	-1.1937300E-007	40	0	3.1409592E+003	4.039999897941016E-002	-6.8317827E-006	7.7279219E+004
2	0	0	1	0	0	3.391400085165515E+000	7.1537107E-001	7.1653163E-001	-9.584251791238785E-003	1.000000000000000E+000	-1.2128984E-007	40	0	3.1409592E+003	4.059999897435773E-002	-6.8674194E-006	7.4761352E+004
2	0	0	0	0	0	3.391600085160462E+000	7.0516437E-001	7.0625329E-001	-9.783817455172539E-003	1.000000000000000E+000	-1.2324661E-007	40	0	3.1409592E+003	4.079999896930531E-002	-6.9098533E-006	7.2185859E+004
2	0	0	1	0	0	3.391800085155410E+000	6.9540244E-001	6.9647950E-001	-9.932545945048332E-003	1.000000000000000E+000	-1.2523311E-007	40	0	3.1409592E+003	4.099999896425288E-002	-6.9178145E-006	7.0120945E+004
2	0	0	0	0	0	3.392000085150357E+000	6.8536246E-001	6.8649381E-001	-1.009326521307230E-002	1.000000000000000E+000	-1.2725177E-007	40	0	3.1409592E+003	4.119999895920046E-002	-6.9289640E-006	6.8015039E+004
2	0	0	1	0	0	3.392200085145305E+000	6.7516291E-001	6.7623031E-001	-1.026521623134613E-002	1.000000000000000E+000	-1.2930481E-007	40	0	3.1409592E+003	4.139999895414803E-002	-6.9416506E-006	6.5875898E+004
2	0	0	0	0	0	3.392400085140252E+000	6.6533428E-001	6.6643572E-001	-1.040535047650337E-002	1.000000000000000E+000	-1.3138589E-007	40	0	3.1409592E+003	4.159999894909561E-002	-6.9344974E-006	6.4047406E+004
2	0	0	1	0	0	3.392600085135200E+000	6.5520763E-001	6.5634429E-001	-1.058700121939182E-002	1.000000000000000E+000	-1.3350328E-007	40	0	3.1409592E+003	4.179999894404318E-002	-6.9487178E-006	6.1995297E+004
2	0	0	0	0	0	3.392800085130148E+000	6.4531440E-001	6.4640868E-001	-1.075463555753231E-002	1.000000000000000E+000	-1.3565422E-007	40	0	3.1409592E+003	4.199999893899076E-002	-6.9518896E-006	6.0105121E+004
2	0	0	1	0	0	3.393000085125095E+000	6.3521820E-001	6.3636678E-001	-1.094690524041653E-002	1.000000000000000E+000	-1.3784359E-007	40	0	3.1409592E+003	4.219999893393833E-002	-6.9662469E-006	5.8132117E+004
2	0	0	0	0	0	3.393200085120043E+000	6.2541133E-001	6.2651759E-001	-1.111377496272326E-002	1.000000000000000E+000	-1.4006635E-007	40	0	3.1409592E+003	4.239999892888591E-002	-6.9629755E-006	5.6373066E+004
2	0	0	1	0	0	3.393400085114990E+000	6.1534852E-001	6.1649001E-001	-1.111377496272326E-002	1.000000000000000E+000	-1.4228910E-007	40	0	3.1409592E+003	4.259999892383348E-002	-6.8515310E-006	5.5470801E+004
2	0	0	0	0	0	3.393600085109938E+000	6.0520583E-001	6.0633689E-001	-1.114044245332479E-002	1.000000000000000E+000	-1.4451719E-007	40	0	3.1409592E+003	4.279999891878106E-002	-6.7548613E-006	5.4426645E+004
2	0	0	1	0	0	3.393800085104886E+000	5.9520578E-001	5.9631610E-001	-1.154721062630415E-002	1.000000000000000E+000	-1.4682664E-007	40	0	3.1409592E+003	4.299999891372863E-002	-6.8857876E-006	5.1641570E+004
2	0	0	0	0	0	3.394000085099833E+000	5.8528954E-001	5.8637536E-001	-1.168852765113115E-002	1.000000000000000E+000	-1.4916434E-007	40	0	3.1409592E+003	4.319999890867621E-002	-6.8538648E-006	5.0166742E+004
2	0	0	1	0	0	3.394200085094781E+000	5.7523370E-001	5.7638782E-001	-1.191158220171928E-002	1.000000000000000E+000	-1.5154666E-007	40	0	3.1409592E+003	4.339999890362378E-002	-6.8656909E-006	4.8388855E+004
2	0	0	0	0	0	3.394400085089728E+000	5.6534415E-001	5.6645983E-001	-1.207314431667328E-002	1.000000000000000E+000	-1.5396128E-007	40	0	3.1409592E+003	4.359999889857136E-002	-6.8389513E-006	4.6918996E+004
2	0	0	1	0	0	3.394600085084676E+000	5.5537802E-001	5.5655950E-001	-1.225762069225311E-002	1.000000000000000E+000	-1.5641281E-007	40	0	3.1409592E+003	4.379999889351893E-002	-6.8220952E-006	4.5405184E+004
2	0	0	0	0	0	3.394800085079623E+000	5.4521877E-001	5.4630554E-001	-1.242987718433142E-002	1.000000000000000E+000	-1.5889879E-007	40	0	3.1409592E+003	4.399999888846651E-002	-6.7905107E-006	4.3951000E+004
2	0	0	1	0	0	3.395000085074571E+000	5.3546476E-001	5.3654742E-001	-1.258761808276176E-002	1.000000000000000E+000	-1.6141631E-007	40	0	3.1409592E+003	4.419999888341408E-002	-6.7538540E-006	4.2625016E+004
2	0	0	0	0	0	3.395200085069519E+000	5.2533907E-001	5.2643025E-001	-1.276522129774094E-002	1.000000000000000E+000	-1.6396935E-007	40	0	3.1409592E+003	4.439999887836166E-002	-6.7199985E-006	4.1239414E+004
2	0	0	1	0	0	3.395400085064466E+000	5.1516777E-001	5.1626748E-001	-1.292601879686117E-002	1.000000000000000E+000	-1.6655456E-007	40	0	3.1409592E+003	4.459999887330923E-002	-6.6732832E-006	3.9940176E+004
2	0	0	0	0	0	3.395600085059414E+000	5.0539219E-001	5.0649542E-001	-1.316893380135298E-002	1.000000000000000E+000	-1.6918834E-007	40	0	3.1409592E+003	4.479999886825681E-002	-6.6700045E-006	3.8461383E+004
2	0	0	1	0	0	3.395800085054361E+000	4.9523053E-001	4.9633843E-001	-1.329420972615480E-002	1.000000000000000E+000	-1.7184719E-007	40	0	3.1409592E+003	4.499999886320438E-002	-6.5984273E-006	3.7334934E+004
2	0	0	0	0	0	3.396000085049309E+000	4.8532677E-001	4.8646611E-001	-1.344240363687277E-002	1.000000000000000E+000	-1.7453567E-007	40	0	3.1409592E+003	4.519999885815196E-002	-6.5392737E-006	3.6188922E+004
2	0	0	1	0	0	3.396200085044256E+000	4.7538686E-001	4.7651440E-001	-1.357264537364244E-002	1.000000000000000E+000	-1.7725020E-007	40	0	3.1409592E+003	4.539999885309953E-002	-6.4675610E-006	3.5108441E+004
2	0	0	0	0	0	3.396400085039204E+000	4.6518555E-001	4.6630639E-001	-1.373917236924171E-002	1.000000000000000E+000	-1.7999803E-007	40	0	3.1409592E+003	4.559999884804711E-002	-6.4066639E-006	3.3939918E+004
2	0	0	1	0	0	3.396600085034152E+000	4.5526123E-001	4.5636642E-001	-1.389805972576141E-002	1.000000000000000E+000	-1.8277764E-007	40	0	3.1409592E+003	4.579999884299468E-002	-6.3426078E-006	3.2836699E+004
2	0	0	0	0	0	3.396800085029099E+000	4.4545090E-001	4.4656336E-001	-1.405771076679230E-002	1.000000000000000E+000	-1.8558919E-007	40	0	3.1409592E+003	4.599999883794226E-002	-6.2776585E-006	3.1766436E+004
2	0	0	1	0	0	3.397000085024047E+000	4.3528318E-001	4.3639272E-001	-1.424906402826309E-002	1.000000000000000E+000	-1.8843899E-007	40	0	3.1409592E+003	4.619999883288983E-002	-6.2181880E-006	3.0626063E+004
2	0	0	0	0	0	3.397200085018994E+000	4.2545122E-001	4.2659482E-001	-1.442246604710817E-002	1.000000000000000E+000	-1.9132349E-007	40	0	3.1409592E+003	4.639999882783741E-002	-6.1525493E-006	2.9578494E+004
2	0	0	1	0	0	3.397400085013942E+000	4.1538554E-001	4.1651091E-001	-1.458287984132767E-002	1.000000000000000E+000	-1.9424006E-007	40	0	3.1409592E+003	4.659999882278498E-002	-6.0739285E-006	2.8561637E+004
2	0	0	0	0	0	3.397600085008889E+000	4.0526342E-001	4.0637445E-001	-1.474787853658199E-002	1.000000000000000E+000	-1.9718964E-007	40	0	3.1409592E+003	4.679999881773256E-002	-5.9931613E-006	2.7554773E+004
2	0	0	1	0	0	3.397800085003837E+000	3.9543390E-001	3.9652547E-001	-1.488576084375381E-002	1.000000000000000E+000	-2.0016680E-007	40	0	3.1409592E+003	4.699999881268013E-002	-5.9025833E-006	2.6637904E+004
2	0	0	0	0	0	3.398000084998785E+000	3.8528538E-001	3.8635114E-001	-1.507061906158924E-002	1.000000000000000E+000	-2.0318092E-007	40	0	3.1409592E+003	4.719999880762771E-002	-5.8225510E-006	2.5636049E+004
2	0	0	1	0	0	3.398200084993732E+000	3.7538505E-001	3.7649247E-001	-1.523218117654324E-002	1.000000000000000E+000	-2.0622736E-007	40	0	3.1409592E+003	4.739999880257528E-002	-5.7348016E-006	2.4716912E+004
2	0	0	0	0	0	3.398400084988680E+000	3.6529896E-001	3.6641872E-001	-1.539947092533112E-002	1.000000000000000E+000	-2.0930725E-007	40	0	3.1409592E+003	4.759999879752286E-002	-5.6426543E-006	2.3794240E+004
2	0	0	1	0	0	3.398600084983627E+000	3.5547301E-001	3.5661149E-001	-1.554231718182564E-002	1.000000000000000E+000	-2.1241571E-007	40	0	3.1409592E+003	4.779999879247043E-002	-5.5425689E-006	2.2944551E+004
2	0	0	0	0	0	3.398800084978575E+000	3.4533170E-001	3.4643295E-001	-1.575200259685516E-002	1.000000000000000E+000	-2.1556610E-007	40	0	3.1409592E+003	4.799999878741801E-002	-5.4570128E-006	2.1992947E+004
2	0	0	1	0	0	3.399000084973522E+000	3.3544698E-001	3.3652115E-001	-1.587422378361225E-002	1.000000000000000E+000	-2.1874095E-007	40	0	3.1409592E+003	4.819999878236558E-002	-5.3420122E-006	2.1199219E+004
2	0	0	0	0	0	3.399200084968470E+000	3.2543883E-001	3.2654056E-001	-1.605450175702572E-002	1.000000000000000E+000	-2.2195185E-007	40	0	3.1409592E+003	4.839999877731316E-002	-5.2424462E-006	2.0339502E+004
2	0	0	1	0	0	3.399400084963418E+000	3.1515598E-001	3.1629294E-001	-1.624279655516148E-002	1.000000000000000E+000	-2.2520041E-007	40	0	3.1409592E+003	4.859999877226073E-002	-5.1374818E-006	1.9472813E+004
2	0	0	0	0	0	3.399600084958365E+000	3.0538881E-001	3.0649111E-001	-1.639481075108051E-002	1.000000000000000E+000	-2.2847938E-007	40	0	3.1409592E+003	4.879999876720831E-002	-5.0248636E-006	1.8694396E+004
2	0	0	1	0	0	3.399800084953313E+000	2.9531348E-001	2.9645485E-001	-1.656783185899258E-002	1.000000000000000E+000	-2.3179294E-007	40	0	3.1409592E+003	4.899999876215588E-002	-4.9116143E-006	1.7893400E+004
2	0	0	0	0	0	3.400000084948260E+000	2.8545755E-001	2.8656423E-001	-1.670800149440765E-002	1.000000000000000E+000	-2.3513455E-007	40	0	3.1409592E+003	4.919999875710346E-002	-4.7879157E-006	1.7151316E+004
2	0	0	1	0	0	3.400200084943208E+000	2.7533427E-001	2.7647999E-001	-1.683480851352215E-002	1.000000000000000E+000	-2.3850151E-007	40	0	3.1409592E+003	4.939999875205103E-002	-4.6544878E-006	1.6423115E+004
2	0	0	0	0	0	3.400400084938155E+000	2.6544112E-001	2.6658645E-001	-1.695702783763409E-002	1.000000000000000E+000	-2.4189291E-007	40	0	3.1409592E+003	4.959999874699861E-002	-4.5205138E-006	1.5721296E+004
2	0	0	1	0	0	3.400600084933103E+000	2.5517267E-001	2.5632283E-001	-1.711629889905453E-002	1.000000000000000E+000	-2.4531616E-007	40	0	3.1409592E+003	4.979999874194618E-002	-4.3872983E-006	1.4975365E+004
2	0	0	0	0	0	3.400800084928051E+000	2.4522315E-001	2.4632336E-001	-1.726029068231583E-002	1.000000000000000E+000	-2.4876823E-007	40	0	3.1409592E+003	4.999999873689376E-002	-4.2516126E-006	1.4271102E+004
2	0	0	1	0	0	3.401000084922998E+000	2.3539001E-001	2.3649752E-001	-1.737601868808270E-002	1.000000000000000E+000	-2.5224344E-007	40	0	3.1409592E+003	5.019999873184133E-002	-4.1093854E-006	1.3610570E+004
2	0	0	0	0	0	3.401200084917946E+000	2.2517553E-001	2.2629920E-001	-1.745469868183136E-002	1.000000000000000E+000	-2.5573436E-007	40	0	3.1409592E+003	5.039999872678891E-002	-3.9499841E-006	1.2964944E+004
2	0	0	1	0	0	3.401400084912893E+000	2.1520561E-001	2.1631742E-001	-1.754445396363735E-002	1.000000000000000E+000	-2.5924325E-007	40	0	3.1409592E+003	5.059999872173648E-002	-3.7951709E-006	1.2329675E+004
2	0	0	0	0	0	3.401600084907841E+000	2.0545268E-001	2.0651327E-001	-1.761893369257450E-002	1.000000000000000E+000	-2.6276706E-007	40	0	3.1409592E+003	5.079999871668406E-002	-3.6385436E-006	1.1721100E+004
2	0	0	1	0	0	3.401800084902789E+000	1.9540118E-001	1.9655699E-001	-1.777476444840431E-002	1.000000000000000E+000	-2.6632199E-007	40	0	3.1409592E+003	5.099999871163163E-002	-3.4937541E-006	1.1058205E+004
2	0	0	0	0	0	3.402000084897736E+000	1.8530171E-001	1.8644184E-001	-1.791493780910969E-002	1.000000000000000E+000	-2.6990500E-007	40	0	3.1409592E+003	5.119999870657921E-002	-3.3400941E-006	1.0407061E+004
2	0	0	1	0	0	3.402200084892684E+000	1.7545776E-001	1.7657462E-001	-1.805014349520206E-002	1.000000000000000E+000	-2.7351501E-007	40	0	3.1409592E+003	5.139999870152678E-002	-3.1871971E-006	9.7824492E+003
2	0	0	0	0	0	3.402400084887631E+000	1.6523129E-001	1.6633761E-001	-1.820139400660992E-002	1.000000000000000E+000	-2.7715529E-007	40	0	3.1409592E+003	5.159999869647436E-002	-3.0275764E-006	9.1387295E+003
2	0	0	1	0	0	3.402600084882579E+000	1.5532255E-001	1.5639420E-001	-1.826708577573299E-002	1.000000000000000E+000	-2.8080871E-007	40	0	3.1409592E+003	5.179999869142193E-002	-2.8568663E-006	8.5615293E+003
2	0	0	0	0	0	3.402800084877526E+000	1.4546421E-001	1.4657366E-001	-1.835378631949425E-002	1.000000000000000E+000	-2.8447948E-007	40	0	3.1409592E+003	5.199999868636951E-002	-2.6901816E-006	7.9860176E+003
2	0	0	1	0	0	3.403000084872474E+000	1.3533714E-001	1.3646917E-001	-1.842635683715343E-002	1.000000000000000E+000	-2.8816476E-007	40	0	3.1409592E+003	5.219999868131708E-002	-2.5146296E-006	7.4061938E+003
2	0	0	0	0	0	3.403200084867422E+000	1.2527604E-001	1.2641917E-001	-1.852947846055031E-002	1.000000000000000E+000	-2.9187063E-007	40	0	3.1409592E+003	5.239999867626466E-002	-2.3424814E-006	6.8225972E+003
2	0	0	1	0	0	3.403400084862369E+000	1.1517058E-001	1.1629052E-001	-1.868531294167042E-002	1.000000000000000E+000	-2.9560769E-007	40	0	3.1409592E+003	5.259999867121223E-002	-2.1729247E-006	6.2236323E+003
2	0	0	0	0	0	3.403600084857317E+000	1.0516107E-001	1.0634550E-001	-1.879645697772503E-002	1.000000000000000E+000	-2.9936700E-007	40	0	3.1409592E+003	5.279999866615981E-002	-1.9989186E-006	5.6577417E+003
2	0	0	1	0	0	3.403800084852264E+000	9.5317140E-002	9.6466884E-002	-1.893281005322933E-002	1.000000000000000E+000	-3.0315354E-007	40	0	3.1409592E+003	5.299999866110738E-002	-1.8263892E-006	5.0952227E+003
2	0	0	0	0	0	3.404000084847212E+000	8.5332826E-002	8.6489946E-002	-1.909666508436203E-002	1.000000000000000E+000	-3.0697288E-007	40	0	3.1409592E+003	5.319999865605496E-002	-1.6516695E-006	4.5290601E+003
2	0	0	1	0	0	3.404200084842159E+000	7.5427689E-002	7.6557741E-002	-1.922576129436493E-002	1.000000000000000E+000	-3.1081805E-007	40	0	3.1409592E+003	5.339999865100253E-002	-1.4718809E-006	3.9820396E+003
2	0	0	0	0	0	3.404400084837107E+000	6.5275609E-002	6.6398919E-002	-1.936937123537064E-002	1.000000000000000E+000	-3.1469190E-007	40	0	3.1409592E+003	5.359999864595011E-002	-1.2861053E-006	3.4280369E+003
2	0	0	1	0	0	3.404600084832055E+000	5.5347685E-002	5.6356099E-002	-1.946409232914448E-002	1.000000000000000E+000	-3.1858474E-007	40	0	3.1409592E+003	5.379999864089768E-002	-1.0969203E-006	2.8953879E+003
2	0	0	0	0	0	3.404800084827002E+000	4.5465346E-002	4.6549726E-002	-1.961992308497429E-002	1.000000000000000E+000	-3.2250873E-007	40	0	3.1409592E+003	5.399999863584526E-002	-9.1330207E-007	2.3725745E+003
2	0	0	1	0	0	3.405000084821950E+000	3.5429455E-002	3.6532614E-002	-1.980249024927616E-002	1.000000000000000E+000	-3.2646921E-007	40	0	3.1409592E+003	5.419999863079283E-002	-7.2343676E-007	1.8448495E+003
2	0	0	0	0	0	3.405200084816897E+000	2.5252171E-002	2.6287537E-002	-2.001981437206268E-002	1.000000000000000E+000	-3.3047317E-007	40	0	3.1409592E+003	5.439999862574041E-002	-5.2627161E-007	1.3130759E+003
2	0	0	1	0	0	3.405400084811845E+000	1.5158862E-002	1.6240872E-002	-2.026082016527653E-002	1.000000000000000E+000	-3.3452534E-007	40	0	3.1409592E+003	5.459999862068798E-002	-3.2905339E-007	8.0159009E+002
2	0	0	0	0	0	3.405600084806792E+000	5.1747262E-003	6.2347203E-003	-2.047241665422916E-002	1.000000000000000E+000	-3.3861983E-007	40	0	3.1409592E+003	5.479999861563556E-002	-1.2763979E-007	3.0454248E+002
2	0	0	1	0	0	3.405800084801740E+000	-4.7350302E-003	-3.6855787E-003	-2.064619958400726E-002	1.000000000000000E+000	-3.4274908E-007	40	0	3.1409592E+003	5.499999861058313E-002	7.6093194E-008	1.7851125E+002
2	0	0	0	0	0	3.406000084796688E+000	-1.4737159E-002	-1.3656333E-002	-2.089102379977703E-002	1.000000000000000E+000	-3.4692727E-007	40	0	3.1409592E+003	5.519999860553071E-002	2.8529479E-007	6.5369379E+002
2	0	0	1	0	0	3.406200084791635E+000	-2.4524719E-002	-2.3448005E-002	-2.112286351621151E-002	1.000000000000000E+000	-3.5115184E-007	40	0	3.1409592E+003	5.539999860047828E-002	4.9528904E-007	1.1100770E+003
2	0	0	0	0	0	3.406400084786583E+000	-3.4755819E-002	-3.3642612E-002	-2.142154052853584E-002	1.000000000000000E+000	-3.5543616E-007	40	0	3.1409592E+003	5.559999859542586E-002	7.2067661E-007	1.5705039E+003
2	0	0	1	0	0	3.406600084781530E+000	-4.4694372E-002	-4.3610863E-002	-2.168049663305283E-002	1.000000000000000E+000	-3.5977226E-007	40	0	3.1409592E+003	5.579999859037343E-002	9.4550518E-007	2.0115251E+003
2	0	0	0	0	0	3.406800084776478E+000	-5.4756321E-002	-5.3659283E-002	-2.200247347354889E-002	1.000000000000000E+000	-3.6417273E-007	40	0	3.1409592E+003	5.599999858532101E-002	1.1806369E-006	2.4387842E+003
2	0	0	1	0	0	3.407000084771425E+000	-6.4609692E-002	-6.3507915E-002	-2.229847759008408E-002	1.000000000000000E+000	-3.6863244E-007	40	0	3.1409592E+003	5.619999858026858E-002	1.4161299E-006	2.8480830E+003
2	0	0	0	0	0	3.407200084766373E+000	-7.4598446E-002	-7.3502153E-002	-2.261663600802422E-002	1.000000000000000E+000	-3.7315576E-007	40	0	3.1409592E+003	5.639999857521616E-002	1.6623715E-006	3.2499153E+003
2	0	0	1	0	0	3.407400084761321E+000	-8.4668800E-002	-8.3620116E-002	-2.302798628807068E-002	1.000000000000000E+000	-3.7776135E-007	40	0	3.1409592E+003	5.659999857016373E-002	1.9256029E-006	3.6312388E+003
2	0	0	0	0	0	3.407600084756268E+000	-9.4669558E-002	-9.3511827E-002	-2.347638644278049E-002	1.000000000000000E+000	-3.8245665E-007	40	0	3.1409592E+003	5.679999856511131E-002	2.1953199E-006	3.9832292E+003
2	0	0	1	0	0	3.407800084751216E+000	-1.0471094E-001	-1.0358422E-001	-2.392058447003365E-002	1.000000000000000E+000	-3.8724076E-007	40	0	3.1409592E+003	5.699999856005888E-002	2.4777951E-006	4.3303384E+003
2	0	0	0	0	0	3.408000084746163E+000	-1.1463596E-001	-1.1352502E-001	-2.441366948187351E-002	1.000000000000000E+000	-3.9212350E-007	40	0	3.1409592E+003	5.719999855500646E-002	2.7715623E-006	4.6500596E+003
2	0	0	1	0	0	3.408200084741111E+000	-1.2457415E-001	-1.2341407E-001	-2.493730932474136E-002	1.000000000000000E+000	-3.9711097E-007	40	0	3.1409592E+003	5.739999854995403E-002	3.0776148E-006	4.9489731E+003
2	0	0	0	0	0	3.408400084736058E+000	-1.3469216E-001	-1.3354670E-001	-2.552206441760063E-002	1.000000000000000E+000	-4.0221536E-007	40	0	3.1409592E+003	5.759999854490161E-002	3.4083873E-006	5.2325977E+003
2	0	0	1	0	0	3.408600084731006E+000	-1.4471419E-001	-1.4365192E-001	-2.624125964939594E-002	1.000000000000000E+000	-4.0746363E-007	40	0	3.1409592E+003	5.779999853984918E-002	3.7696072E-006	5.4742769E+003
2	0	0	0	0	0	3.408800084725954E+000	-1.5454425E-001	-1.5437926E-001	-2.702729590237141E-002	1.000000000000000E+000	-4.1286907E-007	40	0	3.1409592E+003	5.799999853479676E-002	4.1724538E-006	5.7119761E+003
2	0	0	1	0	0	3.409000084720901E+000	-1.6461870E-001	-1.6449909E-001	-2.802759967744350E-002	1.000000000000000E+000	-4.1847460E-007	40	0	3.1409592E+003	5.819999852974433E-002	4.6105147E-006	5.8691821E+003
2	0	0	0	0	0	3.409200084715849E+000	-1.7481655E-001	-1.7420772E-001	-2.916349284350872E-002	1.000000000000000E+000	-4.2430730E-007	40	0	3.1409592E+003	5.839999852469191E-002	5.0805056E-006	5.9734858E+003
2	0	0	1	0	0	3.409400084710796E+000	-1.8467474E-001	-1.8402213E-001	-3.052664361894131E-002	1.000000000000000E+000	-4.3041263E-007	40	0	3.1409592E+003	5.859999851963948E-002	5.6175782E-006	6.0282466E+003
2	0	0	0	0	0	3.409600084705744E+000	-1.9477369E-001	-1.9409011E-001	-3.204141929745674E-002	1.000000000000000E+000	-4.3682090E-007	40	0	3.1409592E+003	5.879999851458706E-002	6.2189229E-006	6.0574756E+003
2	0	0	1	0	0	3.409800084700692E+000	-2.0482555E-001	-2.0413911E-001	-3.397060930728912E-002	1.000000000000000E+000	-4.4361502E-007	40	0	3.1409592E+003	5.899999850953463E-002	6.9347302E-006	6.0092861E+003
2	0	0	0	0	0	3.410000084695639E+000	-2.1473446E-001	-2.1406683E-001	-3.602812439203262E-002	1.000000000000000E+000	-4.5082066E-007	40	0	3.1409592E+003	5.919999850448221E-002	7.7124269E-006	5.9416592E+003
2	0	0	1	0	0	3.410200084690587E+000	-2.2467509E-001	-2.2396415E-001	-3.830678761005402E-002	1.000000000000000E+000	-4.5848202E-007	40	0	3.1409592E+003	5.939999849942978E-002	8.5793472E-006	5.8465918E+003
2	0	0	0	0	0	3.410400084685534E+000	-2.3454598E-001	-2.3380959E-001	-4.055947810411453E-002	1.000000000000000E+000	-4.6659392E-007	40	0	3.1409592E+003	5.959999849437736E-002	9.4831948E-006	5.7646104E+003
2	0	0	1	0	0	3.410600084680482E+000	-2.4472223E-001	-2.4392621E-001	-4.331862553954124E-002	1.000000000000000E+000	-4.7525762E-007	40	0	3.1409592E+003	5.979999848932493E-002	1.0566549E-005	5.6309775E+003
2	0	0	0	0	0	3.410800084675429E+000	-2.5464678E-001	-2.5387627E-001	-4.635773226618767E-002	1.000000000000000E+000	-4.8452921E-007	40	0	3.1409592E+003	5.999999848427251E-002	1.1769128E-005	5.4764600E+003
2	0	0	1	0	0	3.411000084670377E+000	-2.6464719E-001	-2.6379687E-001	-4.975204542279243E-002	1.000000000000000E+000	-4.9447959E-007	40	0	3.1409592E+003	6.019999847922008E-002	1.3124433E-005	5.3022314E+003
2	0	0	0	0	0	3.411200084665325E+000	-2.7476829E-001	-2.7392995E-001	-5.346757173538208E-002	1.000000000000000E+000	-5.0517309E-007	40	0	3.1409592E+003	6.039999847416766E-002	1.4646370E-005	5.1232915E+003
2	0	0	1	0	0	3.411400084660272E+000	-2.8477371E-001	-2.8387114E-001	-5.729003995656967E-002	1.000000000000000E+000	-5.1663113E-007	40	0	3.1409592E+003	6.059999846911523E-002	1.6262989E-005	4.9549824E+003
2	0	0	0	0	0	3.411600084655220E+000	-2.9477021E-001	-2.9384175E-001	-6.111747771501541E-002	1.000000000000000E+000	-5.2885463E-007	40	0	3.1409592E+003	6.079999846406281E-002	1.7958866E-005	4.8078188E+003
2	0	0	1	0	0	3.411800084650167E+000	-3.0476415E-001	-3.0383912E-001	-6.511258333921433E-002	1.000000000000000E+000	-5.4187711E-007	40	0	3.1409592E+003	6.099999845901039E-002	1.9783749E-005	4.6663657E+003
2	0	0	0	0	0	3.412000084645115E+000	-3.1474248E-001	-3.1379417E-001	-6.920279562473297E-002	1.000000000000000E+000	-5.5571769E-007	40	0	3.1409592E+003	6.119999845395796E-002	2.1715434E-005	4.5344146E+003
2	0	0	1	0	0	3.412200084640062E+000	-3.2452750E-001	-3.2353175E-001	-7.353935390710831E-002	1.000000000000000E+000	-5.7042553E-007	40	0	3.1409592E+003	6.139999844890554E-002	2.3792316E-005	4.3994370E+003
2	0	0	0	0	0	3.412400084635010E+000	-3.3468050E-001	-3.3374941E-001	-7.799737900495529E-002	1.000000000000000E+000	-5.8602501E-007	40	0	3.1409592E+003	6.159999844385311E-002	2.6031579E-005	4.2789824E+003
2	0	0	1	0	0	3.412600084629958E+000	-3.4472641E-001	-3.4372774E-001	-8.232247829437256E-002	1.000000000000000E+000	-6.0248954E-007	40	0	3.1409592E+003	6.179999843880069E-002	2.8296519E-005	4.1753813E+003
2	0	0	0	0	0	3.412800084624905E+000	-3.5472411E-001	-3.5372537E-001	-8.676865696907043E-002	1.000000000000000E+000	-6.1984326E-007	40	0	3.1409592E+003	6.199999843374826E-002	3.0692274E-005	4.0766492E+003
2	0	0	1	0	0	3.413000084619853E+000	-3.6480597E-001	-3.6377016E-001	-9.127289056777954E-002	1.000000000000000E+000	-6.3809784E-007	40	0	3.1409592E+003	6.219999842869584E-002	3.3202356E-005	3.9855225E+003
2	0	0	0	0	0	3.413200084614800E+000	-3.7484086E-001	-3.7382782E-001	-9.571334719657898E-002	1.000000000000000E+000	-6.5724049E-007	40	0	3.1409592E+003	6.239999842364341E-002	3.5780311E-005	3.9057021E+003
2	0	0	1	0	0	3.413400084609748E+000	-3.8469341E-001	-3.8369182E-001	-1.004646942019463E-001	1.000000000000000E+000	-6.7733345E-007	40	0	3.1409592E+003	6.259999841859099E-002	3.8547481E-005	3.8191707E+003
2	0	0	0	0	0	3.413600084604695E+000	-3.9474630E-001	-3.9379418E-001	-1.053019836544991E-001	1.000000000000000E+000	-6.9839382E-007	40	0	3.1409592E+003	6.279999841353856E-002	4.1467309E-005	3.7396653E+003
2	0	0	1	0	0	3.413800084599643E+000	-4.0482274E-001	-4.0384778E-001	-1.100796908140183E-001	1.000000000000000E+000	-7.2040979E-007	40	0	3.1409592E+003	6.299999840848614E-002	4.4455439E-005	3.6686855E+003
2	0	0	0	0	0	3.414000084594591E+000	-4.1462913E-001	-4.1364661E-001	-1.100796908140183E-001	1.000000000000000E+000	-7.4242570E-007	40	0	3.1409592E+003	6.319999840343371E-002	4.5534092E-005	3.7577014E+003
2	0	0	1	0	0	3.414200084589538E+000	-4.2462280E-001	-4.2362896E-001	-1.163752079010010E-001	1.000000000000000E+000	-7.6570075E-007	40	0	3.1409592E+003	6.339999839838129E-002	4.9299906E-005	3.6401995E+003
2	0	0	0	0	0	3.414400084584486E+000	-4.3462285E-001	-4.3405810E-001	-1.220355704426765E-001	1.000000000000000E+000	-7.9010789E-007	40	0	3.1409592E+003	6.359999839332886E-002	5.2970528E-005	3.5568162E+003
2	0	0	1	0	0	3.414600084579433E+000	-4.4484910E-001	-4.4373164E-001	-1.278296262025833E-001	1.000000000000000E+000	-8.1567379E-007	40	0	3.1409592E+003	6.379999838827644E-002	5.6722049E-005	3.4712739E+003
2	0	0	0	0	0	3.414800084574381E+000	-4.5473698E-001	-4.5360985E-001	-1.331653445959091E-001	1.000000000000000E+000	-8.4230686E-007	40	0	3.1409592E+003	6.399999838322401E-002	6.0405113E-005	3.4063657E+003
2	0	0	1	0	0	3.415000084569328E+000	-4.6453831E-001	-4.6344224E-001	-1.387760639190674E-001	1.000000000000000E+000	-8.7006208E-007	40	0	3.1409592E+003	6.419999837817159E-002	6.4314692E-005	3.3394968E+003
2	0	0	0	0	0	3.415200084564276E+000	-4.7477922E-001	-4.7370651E-001	-1.441843658685684E-001	1.000000000000000E+000	-8.9889897E-007	40	0	3.1409592E+003	6.439999837311916E-002	6.8301073E-005	3.2854221E+003
2	0	0	1	0	0	3.415400084559224E+000	-4.8482305E-001	-4.8369861E-001	-1.498027145862579E-001	1.000000000000000E+000	-9.2885949E-007	40	0	3.1409592E+003	6.459999836806674E-002	7.2459363E-005	3.2289041E+003
2	0	0	0	0	0	3.415600084554171E+000	-4.9483600E-001	-4.9378070E-001	-1.548061519861221E-001	1.000000000000000E+000	-9.5982068E-007	40	0	3.1409592E+003	6.479999836301431E-002	7.6440294E-005	3.1896711E+003
2	0	0	1	0	0	3.415800084549119E+000	-5.0452256E-001	-5.0342822E-001	-1.603137403726578E-001	1.000000000000000E+000	-9.9188344E-007	40	0	3.1409592E+003	6.499999835796189E-002	8.0706464E-005	3.1402688E+003
2	0	0	0	0	0	3.416000084544066E+000	-5.1480716E-001	-5.1375884E-001	-1.655195951461792E-001	1.000000000000000E+000	-1.0249873E-006	40	0	3.1409592E+003	6.519999835290946E-002	8.5037158E-005	3.1039155E+003
2	0	0	1	0	0	3.416200084539014E+000	-5.2484155E-001	-5.2382290E-001	-1.711341291666031E-001	1.000000000000000E+000	-1.0592142E-006	40	0	3.1409592E+003	6.539999834785704E-002	8.9643974E-005	3.0608909E+003
2	0	0	0	0	0	3.416400084533961E+000	-5.3482372E-001	-5.3373545E-001	-1.766684800386429E-001	1.000000000000000E+000	-1.0945479E-006	40	0	3.1409592E+003	6.559999834280461E-002	9.4294228E-005	3.0211130E+003
2	0	0	1	0	0	3.416600084528909E+000	-5.4452223E-001	-5.4341024E-001	-1.823899596929550E-001	1.000000000000000E+000	-1.1310259E-006	40	0	3.1409592E+003	6.579999833775219E-002	9.9112571E-005	2.9793867E+003
2	0	0	0	0	0	3.416800084523857E+000	-5.5480582E-001	-5.5375284E-001	-1.880617737770081E-001	1.000000000000000E+000	-1.1686383E-006	40	0	3.1409592E+003	6.599999833269976E-002	1.0413974E-004	2.9445264E+003
2	0	0	1	0	0	3.417000084518804E+000	-5.6483513E-001	-5.6372160E-001	-1.935731917619705E-001	1.000000000000000E+000	-1.2073529E-006	40	0	3.1409592E+003	6.619999832764734E-002	1.0912139E-004	2.9121885E+003
2	0	0	0	0	0	3.417200084513752E+000	-5.7468712E-001	-5.7357526E-001	-1.988057941198349E-001	1.000000000000000E+000	-1.2471140E-006	40	0	3.1409592E+003	6.639999832259491E-002	1.1403009E-004	2.8851033E+003
2	0	0	1	0	0	3.417400084508699E+000	-5.8470947E-001	-5.8360451E-001	-2.046304047107697E-001	1.000000000000000E+000	-1.2880402E-006	40	0	3.1409592E+003	6.659999831754249E-002	1.1942322E-004	2.8519932E+003
2	0	0	0	0	0	3.417600084503647E+000	-5.9460765E-001	-5.9358174E-001	-2.103213220834732E-001	1.000000000000000E+000	-1.3301044E-006	40	0	3.1409592E+003	6.679999831249006E-002	1.2484289E-004	2.8222612E+003
2	0	0	1	0	0	3.417800084498595E+000	-6.0464633E-001	-6.0355103E-001	-2.151987105607986E-001	1.000000000000000E+000	-1.3731442E-006	40	0	3.1409592E+003	6.699999830743764E-002	1.2988341E-004	2.8046221E+003
2	0	0	0	0	0	3.418000084493542E+000	-6.1477149E-001	-6.1363113E-001	-2.202556282281876E-001	1.000000000000000E+000	-1.4171952E-006	40	0	3.1409592E+003	6.719999830238521E-002	1.3515571E-004	2.7859951E+003
2	0	0	1	0	0	3.418200084488490E+000	-6.2478530E-001	-6.2375450E-001	-2.247434556484222E-001	1.000000000000000E+000	-1.4621439E-006	40	0	3.1409592E+003	6.739999829733279E-002	1.4018474E-004	2.7754067E+003
2	0	0	0	0	0	3.418400084483437E+000	-6.3456875E-001	-6.3351244E-001	-2.291548550128937E-001	1.000000000000000E+000	-1.5079750E-006	40	0	3.1409592E+003	6.759999829228036E-002	1.4517245E-004	2.7645603E+003
2	0	0	1	0	0	3.418600084478385E+000	-6.4480615E-001	-6.4377522E-001	-2.326801866292953E-001	1.000000000000000E+000	-1.5545110E-006	40	0	3.1409592E+003	6.779999828722794E-002	1.4979373E-004	2.7667815E+003
2	0	0	0	0	0	3.418800084473332E+000	-6.5461689E-001	-6.5367502E-001	-2.352888435125351E-001	1.000000000000000E+000	-1.6015688E-006	40	0	3.1409592E+003	6.799999828217551E-002	1.5380244E-004	2.7781812E+003
2	0	0	1	0	0	3.419000084468280E+000	-6.6454417E-001	-6.6365522E-001	-2.370725125074387E-001	1.000000000000000E+000	-1.6489832E-006	40	0	3.1409592E+003	6.819999827712309E-002	1.5733441E-004	2.7993765E+003
2	0	0	0	0	0	3.419200084463228E+000	-6.7468387E-001	-6.7396063E-001	-2.377180010080338E-001	1.000000000000000E+000	-1.6965269E-006	40	0	3.1409592E+003	6.839999827207066E-002	1.6021257E-004	2.8351267E+003
2	0	0	1	0	0	3.419400084458175E+000	-6.8474829E-001	-6.8407452E-001	-2.375575900077820E-001	1.000000000000000E+000	-1.7440384E-006	40	0	3.1409592E+003	6.859999826701824E-002	1.6250710E-004	2.8796155E+003
2	0	0	0	0	0	3.419600084453123E+000	-6.9472092E-001	-6.9414061E-001	-2.377638369798660E-001	1.000000000000000E+000	-1.7915911E-006	40	0	3.1409592E+003	6.879999826196581E-002	1.6504154E-004	2.9194541E+003
2	0	0	1	0	0	3.419800084448070E+000	-7.0455813E-001	-7.0411932E-001	-2.379127889871597E-001	1.000000000000000E+000	-1.8391737E-006	40	0	3.1409592E+003	6.899999825691339E-002	1.6751899E-004	2.9595691E+003
2	0	0	0	0	0	3.420000084443018E+000	-7.1457714E-001	-7.1400768E-001	-2.390624284744263E-001	1.000000000000000E+000	-1.8869862E-006	40	0	3.1409592E+003	6.919999825186096E-002	1.7069241E-004	2.9866997E+003
2	0	0	1	0	0	3.420200084437965E+000	-7.2477597E-001	-7.2423619E-001	-2.402426451444626E-001	1.000000000000000E+000	-1.9350348E-006	40	0	3.1409592E+003	6.939999824680854E-002	1.7399242E-004	3.0146030E+003
2	0	0	0	0	0	3.420400084432913E+000	-7.3483175E-001	-7.3419994E-001	-2.427557855844498E-001	1.000000000000000E+000	-1.9835859E-006	40	0	3.1409592E+003	6.959999824175611E-002	1.7823129E-004	3.0244385E+003
2	0	0	1	0	0	3.420600084427861E+000	-7.4479157E-001	-7.4412483E-001	-2.455783337354660E-001	1.000000000000000E+000	-2.0327016E-006	40	0	3.1409592E+003	6.979999823670369E-002	1.8274093E-004	3.0300916E+003
2	0	0	0	0	0	3.420800084422808E+000	-7.5456458E-001	-7.5386006E-001	-2.491418719291687E-001	1.000000000000000E+000	-2.0825298E-006	40	0	3.1409592E+003	6.999999823165126E-002	1.8781811E-004	3.0258264E+003
2	0	0	1	0	0	3.421000084417756E+000	-7.6469928E-001	-7.6381820E-001	-2.534731030464172E-001	1.000000000000000E+000	-2.1332246E-006	40	0	3.1409592E+003	7.019999822659884E-002	1.9360737E-004	3.0134092E+003
2	0	0	0	0	0	3.421200084412703E+000	-7.7483982E-001	-7.7399904E-001	-2.579074203968048E-001	1.000000000000000E+000	-2.1848059E-006	40	0	3.1409592E+003	7.039999822154641E-002	1.9962009E-004	3.0010732E+003
2	0	0	1	0	0	3.421400084407651E+000	-7.8456908E-001	-7.8363508E-001	-2.624983787536621E-001	1.000000000000000E+000	-2.2373056E-006	40	0	3.1409592E+003	7.059999821649399E-002	2.0570293E-004	2.9852949E+003
2	0	0	0	0	0	3.421600084402598E+000	-7.9464132E-001	-7.9367679E-001	-2.675056159496307E-001	1.000000000000000E+000	-2.2908068E-006	40	0	3.1409592E+003	7.079999821144156E-002	2.1231300E-004	2.9669539E+003
2	0	0	1	0	0	3.421800084397546E+000	-8.0455488E-001	-8.0359274E-001	-2.727496623992920E-001	1.000000000000000E+000	-2.3453567E-006	40	0	3.1409592E+003	7.099999820638914E-002	2.1917965E-004	2.9462649E+003
2	0	0	0	0	0	3.422000084392494E+000	-8.1482750E-001	-8.1379312E-001	-2.786965072154999E-001	1.000000000000000E+000	-2.4010960E-006	40	0	3.1409592E+003	7.119999820133671E-002	2.2680130E-004	2.9199976E+003
2	0	0	1	0	0	3.422200084387441E+000	-8.2468969E-001	-8.2361609E-001	-2.847693562507629E-001	1.000000000000000E+000	-2.4580499E-006	40	0	3.1409592E+003	7.139999819628429E-002	2.3454062E-004	2.8922217E+003
2	0	0	0	0	0	3.422400084382389E+000	-8.3467782E-001	-8.3362901E-001	-2.916022837162018E-001	1.000000000000000E+000	-2.5163704E-006	40	0	3.1409592E+003	7.159999819123186E-002	2.4308813E-004	2.8587876E+003
2	0	0	1	0	0	3.422600084377336E+000	-8.4460336E-001	-8.4348661E-001	-2.981946170330048E-001	1.000000000000000E+000	-2.5760094E-006	40	0	3.1409592E+003	7.179999818617944E-002	2.5152316E-004	2.8286445E+003
2	0	0	0	0	0	3.422800084372284E+000	-8.5480833E-001	-8.5359097E-001	-3.059670925140381E-001	1.000000000000000E+000	-2.6372027E-006	40	0	3.1409592E+003	7.199999818112701E-002	2.6117073E-004	2.7898130E+003
2	0	0	1	0	0	3.423000084367231E+000	-8.6476898E-001	-8.6355376E-001	-3.135906755924225E-001	1.000000000000000E+000	-2.6999207E-006	40	0	3.1409592E+003	7.219999817607459E-002	2.7080241E-004	2.7537610E+003
2	0	0	0	0	0	3.423200084362179E+000	-8.7468952E-001	-8.7337917E-001	-3.225509822368622E-001	1.000000000000000E+000	-2.7644310E-006	40	0	3.1409592E+003	7.239999817102216E-002	2.8170930E-004	2.7077244E+003
2	0	0	1	0	0	3.423400084357127E+000	-8.8474447E-001	-8.8346988E-001	-3.313012719154358E-001	1.000000000000000E+000	-2.8306913E-006	40	0	3.1409592E+003	7.259999816596974E-002	2.9269469E-004	2.6666660E+003
2	0	0	0	0	0	3.423600084352074E+000	-8.9460075E-001	-8.9312983E-001	-3.409567475318909E-001	1.000000000000000E+000	-2.8988827E-006	40	0	3.1409592E+003	7.279999816091731E-002	3.0451865E-004	2.6194812E+003
2	0	0	1	0	0	3.423800084347022E+000	-9.0478337E-001	-9.0337670E-001	-3.509292602539063E-001	1.000000000000000E+000	-2.9690684E-006	40	0	3.1409592E+003	7.299999815586489E-002	3.1702130E-004	2.5742417E+003
2	0	0	0	0	0	3.424000084341969E+000	-9.1478956E-001	-9.1330767E-001	-3.626663088798523E-001	1.000000000000000E+000	-3.0416018E-006	40	0	3.1409592E+003	7.319999815081246E-002	3.3122592E-004	2.5183140E+003
2	0	0	1	0	0	3.424200084336917E+000	-9.2479992E-001	-9.2318225E-001	-3.739259243011475E-001	1.000000000000000E+000	-3.1163870E-006	40	0	3.1409592E+003	7.339999814576004E-002	3.4520178E-004	2.4688906E+003
2	0	0	0	0	0	3.424400084331864E+000	-9.3460143E-001	-9.3293107E-001	-3.871907889842987E-001	1.000000000000000E+000	-3.1938250E-006	40	0	3.1409592E+003	7.359999814070761E-002	3.6122231E-004	2.4094868E+003
2	0	0	1	0	0	3.424600084326812E+000	-9.4456911E-001	-9.4295406E-001	-4.001080393791199E-001	1.000000000000000E+000	-3.2738467E-006	40	0	3.1409592E+003	7.379999813565519E-002	3.7728349E-004	2.3567485E+003
2	0	0	0	0	0	3.424800084321760E+000	-9.5457160E-001	-9.5272934E-001	-4.151526987552643E-001	1.000000000000000E+000	-3.3568772E-006	40	0	3.1409592E+003	7.399999813060276E-002	3.9552816E-004	2.2948889E+003
2	0	0	1	0	0	3.425000084316707E+000	-9.6466601E-001	-9.6279085E-001	-4.307435750961304E-001	1.000000000000000E+000	-3.4430259E-006	40	0	3.1409592E+003	7.419999812555034E-002	4.1471596E-004	2.2351833E+003
2	0	0	0	0	0	3.425200084311655E+000	-9.7474515E-001	-9.7264874E-001	-4.487635195255280E-001	1.000000000000000E+000	-3.5327787E-006	40	0	3.1409592E+003	7.439999812049791E-002	4.3648927E-004	2.1673970E+003
2	0	0	1	0	0	3.425400084306602E+000	-9.8477530E-001	-9.8522019E-001	-4.671731293201447E-001	1.000000000000000E+000	-3.6262134E-006	40	0	3.1409592E+003	7.459999811544549E-002	4.6026841E-004	2.1088975E+003
2	0	0	0	0	0	3.425600084301550E+000	-9.9484253E-001	-9.9554634E-001	-4.881608188152313E-001	1.000000000000000E+000	-3.7238456E-006	40	0	3.1409592E+003	7.479999811039306E-002	4.8598670E-004	2.0393820E+003
2	0	0	1	0	0	3.425800084296498E+000	-1.0046859E+000	-1.0029011E+000	-5.110123753547668E-001	1.000000000000000E+000	-3.8260478E-006	40	0	3.1409592E+003	7.499999810534064E-002	5.1249488E-004	1.9625769E+003
2	0	0	0	0	0	3.426000084291445E+000	-1.0147648E+000	-1.0128124E+000	-5.353573560714722E-001	1.000000000000000E+000	-3.9331194E-006	40	0	3.1409592E+003	7.519999810028821E-002	5.4221653E-004	1.8918436E+003
2	0	0	1	0	0	3.426200084286393E+000	-1.0246564E+000	-1.0224773E+000	-5.641710162162781E-001	1.000000000000000E+000	-4.0459536E-006	40	0	3.1409592E+003	7.539999809523579E-002	5.7685206E-004	1.8123534E+003
2	0	0	0	0	0	3.426400084281340E+000	-1.0345238E+000	-1.0322348E+000	-5.941113233566284E-001	1.000000000000000E+000	-4.1647759E-006	40	0	3.1409592E+003	7.559999809018336E-002	6.1326235E-004	1.7374434E+003
2	0	0	1	0	0	3.426600084276288E+000	-1.0446886E+000	-1.0419623E+000	-6.277565956115723E-001	1.000000000000000E+000	-4.2903271E-006	40	0	3.1409592E+003	7.579999808513094E-002	6.5409869E-004	1.6598188E+003
2	0	0	0	0	0	3.426800084271235E+000	-1.0546482E+000	-1.0516517E+000	-6.632809042930603E-001	1.000000000000000E+000	-4.4229832E-006	40	0	3.1409592E+003	7.599999808007851E-002	6.9754053E-004	1.5855299E+003
2	0	0	1	0	0	3.427000084266183E+000	-1.0646372E+000	-1.0612593E+000	-7.038010954856873E-001	1.000000000000000E+000	-4.5637435E-006	40	0	3.1409592E+003	7.619999807502609E-002	7.4691541E-004	1.5078966E+003
2	0	0	0	0	0	3.427200084261131E+000	-1.0747244E+000	-1.0713017E+000	-7.484614849090576E-001	1.000000000000000E+000	-4.7134358E-006	40	0	3.1409592E+003	7.639999806997366E-002	8.0182805E-004	1.4313385E+003
2	0	0	1	0	0	3.427400084256078E+000	-1.0847864E+000	-1.0807462E+000	-7.987211942672729E-001	1.000000000000000E+000	-4.8731799E-006	40	0	3.1409592E+003	7.659999806492124E-002	8.6321490E-004	1.3530957E+003
2	0	0	0	0	0	3.427600084251026E+000	-1.0948441E+000	-1.0904024E+000	-8.540912270545959E-001	1.000000000000000E+000	-5.0439985E-006	40	0	3.1409592E+003	7.679999805986881E-002	9.3130308E-004	1.2766814E+003
2	0	0	1	0	0	3.427800084245973E+000	-1.1046486E+000	-1.0995700E+000	-9.185362458229065E-001	1.000000000000000E+000	-5.2277055E-006	40	0	3.1409592E+003	7.699999805481639E-002	1.0099949E-003	1.1970895E+003
2	0	0	0	0	0	3.428000084240921E+000	-1.1147349E+000	-1.1091733E+000	-9.875186681747437E-001	1.000000000000000E+000	-5.4252096E-006	40	0	3.1409592E+003	7.719999804976396E-002	1.0953293E-003	1.1231923E+003
2	0	0	1	0	0	3.428200084235868E+000	-1.1246505E+000	-1.1180634E+000	-1.069704890251160E+000	1.000000000000000E+000	-5.6391505E-006	40	0	3.1409592E+003	7.739999804471154E-002	1.1959979E-003	1.0452074E+003
2	0	0	0	0	0	3.428400084230816E+000	-1.1346476E+000	-1.1276429E+000	-1.157658219337463E+000	1.000000000000000E+000	-5.8706819E-006	40	0	3.1409592E+003	7.759999803965911E-002	1.3054251E-003	9.7407233E+002
2	0	0	1	0	0	3.428600084225764E+000	-1.1448393E+000	-1.1315417E+000	-1.262699842453003E+000	1.000000000000000E+000	-6.1232217E-006	40	0	3.1409592E+003	7.779999803460669E-002	1.4287976E-003	8.9612885E+002
2	0	0	0	0	0	3.428800084220711E+000	-1.1545837E+000	-1.1558611E+000	-1.377179145812988E+000	1.000000000000000E+000	-6.3986577E-006	40	0	3.1409592E+003	7.799999802955426E-002	1.5918278E-003	8.3929614E+002
2	0	0	1	0	0	3.429000084215659E+000	-1.1646547E+000	-1.1667166E+000	-1.513906598091125E+000	1.000000000000000E+000	-6.7014389E-006	40	0	3.1409592E+003	7.819999802450184E-002	1.7662999E-003	7.7066614E+002
2	0	0	0	0	0	3.429200084210606E+000	-1.1747494E+000	-1.1635203E+000	-1.665495276451111E+000	1.000000000000000E+000	-7.0345382E-006	40	0	3.1409592E+003	7.839999801944941E-002	1.9378376E-003	6.9860321E+002
2	0	0	1	0	0	3.429400084205554E+000	-1.1846304E+000	-1.1711588E+000	-1.851317405700684E+000	1.000000000000000E+000	-7.4048016E-006	40	0	3.1409592E+003	7.859999801439699E-002	2.1681867E-003	6.3260834E+002
2	0	0	0	0	0	3.429600084200501E+000	-1.1948333E+000	-1.1796803E+000	-2.059112548828125E+000	1.000000000000000E+000	-7.8166240E-006	40	0	3.1409592E+003	7.879999800934456E-002	2.4290946E-003	5.7290717E+002
2	0	0	1	0	0	3.429800084195449E+000	-1.2048450E+000	-6.8406916E-001	-2.316247224807739E+000	1.000000000000000E+000	-8.2798733E-006	40	0	3.1409592E+003	7.899999800429214E-002	1.5844733E-003	2.9533511E+002
2	0	0	0	0	0	3.430000084190397E+000	-1.2148404E+000	-1.2184963E+000	-2.503394603729248E+000	1.000000000000000E+000	-8.7805529E-006	40	0	3.1409592E+003	7.919999799923971E-002	3.0503771E-003	4.8673761E+002
2	0	0	1	0	0	3.430200084185344E+000	-1.2245302E+000	-6.8158817E-001	-2.505033016204834E+000	1.000000000000000E+000	-9.2815590E-006	40	0	3.1409592E+003	7.939999799418729E-002	1.7074009E-003	2.7208749E+002
2	0	0	0	0	0	3.430400084180292E+000	-1.2347126E+000	-8.1783295E-002	-2.505033016204834E+000	1.000000000000000E+000	-9.7825659E-006	40	0	3.1409592E+003	7.959999798913486E-002	2.0486985E-004	3.2647591E+001
2	0	0	1	0	0	3.430600084175239E+000	-1.2445655E+000	-4.9101830E-002	-2.505033016204834E+000	1.000000000000000E+000	-1.0283572E-005	40	0	3.1409592E+003	7.979999798408244E-002	1.2300171E-004	1.9601271E+001
2	0	0	0	0	0	3.430800084170187E+000	-1.2545657E+000	-4.0497780E-003	-2.505033016204834E+000	1.000000000000000E+000	-1.0784579E-005	40	0	3.1409592E+003	7.999999797903001E-002	1.0144828E-005	1.6166565E+000
2	0	0	1	0	0	3.431200084160082E+000	-1.2445655E+000	1.9880772E-002	-2.505033016204834E+000	1.000000000000000E+000	-1.1786592E-005	40	0	3.1409592E+003	8.039999796892516E-002	-4.9801991E-005	7.9363313E+000
2	0	0	0	0	0	3.431400084155030E+000	-1.2245660E+000	3.9424896E-002	-2.505033016204834E+000	1.000000000000000E+000	-1.2287599E-005	40	0	3.1409592E+003	8.059999796387274E-002	-9.8760669E-005	1.5738275E+001
2	0	0	1	0	0	3.431600084149977E+000	-1.2145658E+000	5.5560589E-002	-2.505033016204834E+000	1.000000000000000E+000	-1.2788605E-005	40	0	3.1409592E+003	8.079999795882031E-002	-1.3918111E-004	2.2179583E+001
2	0	0	0	0	0	3.431800084144925E+000	-1.2045655E+000	7.2907925E-002	-2.505033016204834E+000	1.000000000000000E+000	-1.3289612E-005	40	0	3.1409592E+003	8.099999795376789E-002	-1.8263675E-004	2.9104576E+001
2	0	0	1	0	0	3.432000084139872E+000	-1.1945653E+000	8.8975906E-002	-2.505033016204834E+000	1.000000000000000E+000	-1.3790618E-005	40	0	3.1409592E+003	8.119999794871546E-002	-2.2288758E-004	3.5518856E+001
2	0	0	0	0	0	3.432200084134820E+000	-1.1845651E+000	1.0298157E-001	-2.505033016204834E+000	1.000000000000000E+000	-1.4291625E-005	40	0	3.1409592E+003	8.139999794366304E-002	-2.5797222E-004	4.1109863E+001
2	0	0	1	0	0	3.432400084129767E+000	-1.1745658E+000	1.1807203E-001	-2.505033016204834E+000	1.000000000000000E+000	-1.4792632E-005	40	0	3.1409592E+003	8.159999793861061E-002	-2.9577434E-004	4.7133923E+001
2	0	0	0	0	0	3.432600084124715E+000	-1.1645656E+000	1.2906599E-001	-2.505033016204834E+000	1.000000000000000E+000	-1.5293639E-005	40	0	3.1409592E+003	8.179999793355819E-002	-3.2331457E-004	5.1522671E+001
2	0	0	1	0	0	3.432800084119663E+000	-1.1545653E+000	1.3981962E-001	-2.505033016204834E+000	1.000000000000000E+000	-1.5794645E-005	40	0	3.1409592E+003	8.199999792850576E-002	-3.5025278E-004	5.5815479E+001
2	0	0	0	0	0	3.433000084114610E+000	-1.1445651E+000	1.5092087E-001	-2.505033016204834E+000	1.000000000000000E+000	-1.6295651E-005	40	0	3.1409592E+003	8.219999792345334E-002	-3.7806176E-004	6.0247059E+001
2	0	0	1	0	0	3.433200084109558E+000	-1.1345649E+000	1.6510248E-001	-2.505033016204834E+000	1.000000000000000E+000	-1.6796657E-005	40	0	3.1409592E+003	8.239999791840091E-002	-4.1358717E-004	6.5908302E+001
2	0	0	0	0	0	3.433400084104505E+000	-1.1245646E+000	1.7736769E-001	-2.505033016204834E+000	1.000000000000000E+000	-1.7297665E-005	40	0	3.1409592E+003	8.259999791334849E-002	-4.4431191E-004	7.0804527E+001
2	0	0	1	0	0	3.433600084099453E+000	-1.1145654E+000	1.8684626E-001	-2.505033016204834E+000	1.000000000000000E+000	-1.7798671E-005	40	0	3.1409592E+003	8.279999790829606E-002	-4.6805604E-004	7.4588341E+001
2	0	1	1	0	0	3.497600082482677E+000	2.0854588E+000	2.0827470E+000	-2.505033111572267E+000	1.000000000000000E+000	-1.7812078E-004	40	0	3.1409592E+003	1.467999962915201E-001	-5.2173501E-003	8.3142493E+002
2	0	0	0	0	0	3.497800082477625E+000	2.0954585E+000	2.0933075E+000	-2.505033016204834E+000	1.000000000000000E+000	-1.7862179E-004	40	0	3.1409592E+003	1.469999962864676E-001	-5.2438043E-003	8.3564069E+002
2	0	0	1	0	0	3.498000082472572E+000	2.1054587E+000	2.1039972E+000	-2.505033016204834E+000	1.000000000000000E+000	-1.7912280E-004	40	0	3.1409592E+003	1.471999962814152E-001	-5.2705826E-003	8.3990796E+002
2	0	0	0	0	0	3.498200082467520E+000	2.1154590E+000	2.1130137E+000	-2.505033016204834E+000	1.000000000000000E+000	-1.7962381E-004	40	0	3.1409592E+003	1.473999962763628E-001	-5.2931691E-003	8.4350732E+002
2	0	0	1	0	0	3.498400082462467E+000	2.1254587E+000	2.1231222E+000	-2.503841638565063E+000	1.000000000000000E+000	-1.8012457E-004	40	0	3.1409592E+003	1.475999962713104E-001	-5.3159618E-003	8.4794586E+002
2	0	0	0	0	0	3.498600082457415E+000	2.1354589E+000	2.1328607E+000	-2.503788232803345E+000	1.000000000000000E+000	-1.8062533E-004	40	0	3.1409592E+003	1.477999962662579E-001	-5.3402316E-003	8.5185345E+002
2	0	0	1	0	0	3.498800082452362E+000	2.1453834E+000	2.1428342E+000	-2.493907213211060E+000	1.000000000000000E+000	-1.8112411E-004	40	0	3.1409592E+003	1.479999962612055E-001	-5.3440295E-003	8.5922772E+002
2	0	0	0	0	0	3.499000082447310E+000	2.1552157E+000	2.1528931E+000	-2.489743947982788E+000	1.000000000000000E+000	-1.8162206E-004	40	0	3.1409592E+003	1.481999962561531E-001	-5.3601526E-003	8.6470459E+002
2	0	0	1	0	0	3.499200082442258E+000	2.1651807E+000	2.1617308E+000	-2.472373247146606E+000	1.000000000000000E+000	-1.8211654E-004	40	0	3.1409592E+003	1.483999962511007E-001	-5.3446055E-003	8.7435455E+002
2	0	0	0	0	0	3.499400082437205E+000	2.1754375E+000	2.1724706E+000	-2.460750818252563E+000	1.000000000000000E+000	-1.8260868E-004	40	0	3.1409592E+003	1.485999962460482E-001	-5.3459089E-003	8.8284863E+002
2	0	0	1	0	0	3.499600082432153E+000	2.1852102E+000	2.1808481E+000	-2.424141645431519E+000	1.000000000000000E+000	-1.8309351E-004	40	0	3.1409592E+003	1.487999962409958E-001	-5.2866847E-003	8.9963727E+002
2	0	0	0	0	0	3.499800082427100E+000	2.1953716E+000	2.1915865E+000	-2.396558046340942E+000	1.000000000000000E+000	-1.8357282E-004	40	0	3.1409592E+003	1.489999962359434E-001	-5.2522644E-003	9.1447253E+002
2	0	0	1	0	0	3.500000082422048E+000	2.2053847E+000	2.1991034E+000	-2.329454660415649E+000	1.000000000000000E+000	-1.8403871E-004	40	0	3.1409592E+003	1.491999962308910E-001	-5.1227114E-003	9.4404211E+002
2	0	0	0	0	0	3.500200082416995E+000	2.2154126E+000	2.2099686E+000	-2.276280641555786E+000	1.000000000000000E+000	-1.8449397E-004	40	0	3.1409592E+003	1.493999962258385E-001	-5.0305086E-003	9.7086823E+002
2	0	0	1	0	0	3.500400082411943E+000	2.2253122E+000	2.2155099E+000	-2.153108358383179E+000	1.000000000000000E+000	-1.8492459E-004	40	0	3.1409592E+003	1.495999962207861E-001	-4.7702328E-003	1.0289821E+003
2	0	0	0	0	0	3.500600082406891E+000	2.2352967E+000	2.2273464E+000	-2.061686992645264E+000	1.000000000000000E+000	-1.8533693E-004	40	0	3.1409592E+003	1.497999962157337E-001	-4.5920913E-003	1.0803514E+003
2	0	0	1	0	0	3.500800082401838E+000	2.2454205E+000	2.2289844E+000	-1.854059815406799E+000	1.000000000000000E+000	-1.8570774E-004	40	0	3.1409592E+003	1.499999962106813E-001	-4.1326704E-003	1.2022181E+003
2	0	0	0	0	0	3.501000082396786E+000	2.2552714E+000	2.2429476E+000	-1.704189777374268E+000	1.000000000000000E+000	-1.8604858E-004	40	0	3.1409592E+003	1.501999962056289E-001	-3.8224084E-003	1.3161372E+003
2	0	0	1	0	0	3.501200082391733E+000	2.2654610E+000	2.2397444E+000	-1.380387425422668E+000	1.000000000000000E+000	-1.8632466E-004	40	0	3.1409592E+003	1.503999962005764E-001	-3.0917150E-003	1.6225477E+003
2	0	0	0	0	0	3.501400082386681E+000	2.2753956E+000	1.8577907E+000	-1.166905164718628E+000	1.000000000000000E+000	-1.8655804E-004	40	0	3.1409592E+003	1.505999961955240E-001	-2.1678656E-003	1.5920665E+003
2	0	0	1	0	0	3.501600082381628E+000	2.2853529E+000	2.2845125E+000	-7.313581705093384E-001	1.000000000000000E+000	-1.8670432E-004	40	0	3.1409592E+003	1.507999961904716E-001	-1.6707969E-003	3.1236577E+003
2	0	0	0	0	0	3.501800082376576E+000	2.2951522E+000	2.1697063E+000	-4.802393317222595E-001	1.000000000000000E+000	-1.8680036E-004	40	0	3.1409592E+003	1.509999961854192E-001	-1.0419784E-003	4.5179688E+003
2	1	0	1	0	0	3.502000082371524E+000	2.3054602E+000	8.0167115E-001	4.950196668505669E-002	1.000000000000000E+000	-1.8679046E-004	40	0	3.1409592E+003	0.000000000000000E+000	3.9684299E-005	1.6194733E+004
2	1	0	0	0	0	3.502200082366471E+000	2.3153787E+000	2.0125813E+000	4.322721958160400E-001	1.000000000000000E+000	-1.8670400E-004	40	0	3.1409592E+003	1.999999949475750E-004	8.6998293E-004	4.6558193E+003
2	1	0	1	0	0	3.502400082361419E+000	2.3251619E+000	3.4846884E-001	1.449088215827942E+000	1.000000000000000E+000	-1.8641418E-004	40	0	3.1409592E+003	3.999999898951501E-004	5.0496211E-004	2.4047455E+002
2	1	0	0	0	0	3.502600082356366E+000	2.3352387E+000	-8.5379672E-001	2.392720460891724E+000	1.000000000000000E+000	-1.8593564E-004	40	0	3.1409592E+003	5.999999848427251E-004	-2.0428968E-003	3.5683096E+002
2	1	0	1	0	0	3.502800082351314E+000	2.3451514E+000	-2.0481389E+000	2.501073598861694E+000	1.000000000000000E+000	-1.8543543E-004	40	0	3.1409592E+003	7.999999797903001E-004	-5.1225461E-003	8.1890387E+002
2	1	1	0	0	0	3.503000082346261E+000	2.3552637E+000	-5.0122657E+000	2.501073598861694E+000	1.000000000000000E+000	-1.8493521E-004	40	0	3.1409592E+003	9.999999747378752E-004	-1.2536045E-002	2.0040457E+003
2	1	1	1	0	0	3.516000082017854E+000	2.1472645E+000	-1.8758402E+000	2.501073511819982E+000	1.000000000000000E+000	-1.5242126E-004	40	0	3.1409592E+003	1.399999964633025E-002	-4.6916143E-003	7.5001404E+002