EC-Lab ASCII FILE
Nb header lines : 81                          

Galvanostatic Cycling with Potential Limitation

Run on channel : 1 (SN 15265)
User : 
Electrode connection : standard
Potential control : Ewe
Ewe ctrl range : min = 3,00 V, max = 4,50 V
Ewe,I filtering : 50 kHz
Safety Limits :
	Do not start on E overload
Channel : Floating
Acquisition started on : 01/10/2024 11:02:29.886
Technique started on : 01/10/2024 11:03:00.039
Loaded Setting File :  NONE
Saved on :
	File : ***.mpr
	Directory : C:\Users\***\
	Host : 169.254.189.50
Device : SP-300 (SN 1854)
Address : 169.254.189.65
EC-Lab for windows v11.50 (software)
Internet server v11.50 (firmware)
Command interpretor v11.50 (firmware)
Electrode material : 
Initial state : 
Electrolyte : 
Comments : 
Cable : standard
Electrode surface area : 0,000 cm²
Characteristic mass : 0,001 g
Equivalent Weight : 0,000 g/eq.
Density : 0,000 g/cm3
Volume (V) : 0,001 cm³
Record Power
Record EIS quality indicators
Cycle Definition : Charge/Discharge alternance
Ns                  0                   1                   2                   
Set I/C             I                   I                   I                   
Is                  0,000               30,000              -30,000             
unit Is             mA                  µA                  µA                  
vs.                 <None>              <None>              <None>              
N                   1,00                1,00                1,00                
I sign              > 0                 > 0                 > 0                 
t1 (h:m:s)          0:00:0,0000         0:00:10,0000        0:00:10,0000        
I Range             100 µA              100 µA              100 µA              
Bandwidth           8                   8                   8                   
dE1 (mV)            0,00                0,00                0,00                
dt1 (s)             0,0000              1,0000              1,0000              
EM (V)              0,000               4,500               3,000               
tM (h:m:s)          0:00:0,0000         0:00:0,0000         0:00:0,0000         
Im                  0,000               0,000               0,000               
unit Im             mA                  mA                  mA                  
dI/dt               0,000               0,000               0,000               
dunit dI/dt         mA/s                mA/s                mA/s                
E range min (V)     3,000               3,000               3,000               
E range max (V)     4,500               4,500               4,500               
dq                  0,000               1,000               1,000               
unit dq             A.h                 A.h                 A.h                 
dtq (s)             0,0000              120,0000            120,0000            
dQM                 0,000               0,000               0,000               
unit dQM            mA.h                mA.h                mA.h                
dxM                 0,000               0,000               0,000               
delta SoC (%)       pass                pass                pass                
tR (h:m:s)          0:00:10,0000        0:00:0,0000         0:00:0,0000         
dER/dt (mV/h)       0,0                 0,1                 0,1                 
dER (mV)            0,00                0,00                0,00                
dtR (s)             1,0000              120,0000            120,0000            
EL (V)              pass                pass                pass                
goto Ns'            0                   0                   0                   
nc cycles           0                   0                   0                   

Number of loops : 4
Loop 0 from point number 0 to 32
Loop 1 from point number 33 to 65
Loop 2 from point number 66 to 98
Loop 3 from point number 99 to 131

mode	ox/red	error	control changes	Ns changes	counter inc.	Ns	time/s	dq/mA.h	(Q-Qo)/mA.h	control/V/mA	Ewe/V	I Range	Q charge/discharge/mA.h	half cycle	P/W	Energy charge/W.h	Energy discharge/W.h	Capacitance charge/µF	Capacitance discharge/µF	step time/s	<I>/mA	Q discharge/mA.h	Q charge/mA.h	Capacity/mA.h	Efficiency/%	control/V	control/mA	cycle number	
3	1	0	1	0	0	0	3,015299923827115E+001	0,000000000000000E+000	6,092006547583474E-010	0,0000000E+000	3,4228721E+000	39	0,000000000000000E+000	0	0,0000000E+000	0,000000000000000E+000	0,000000000000000E+000	0,000000000000000E+000	0,000000000000000E+000	0,000000000000000E+000	0,000000000000000E+000	0,000000000000000E+000	0,000000000000000E+000	0,000000000000000E+000	0,0000000E+000	0,0000000E+000	0,0000000E+000	0,000000000000000E+000
3	1	0	1	0	0	0	3,115299921300903E+001	0,000000000000000E+000	6,092006547583474E-010	0,0000000E+000	3,4219875E+000	39	0,000000000000000E+000	0	0,0000000E+000	0,000000000000000E+000	0,000000000000000E+000	0,000000000000000E+000	0,000000000000000E+000	0,000000000000000E+000	0,000000000000000E+000	0,000000000000000E+000	0,000000000000000E+000	0,000000000000000E+000	0,0000000E+000	0,0000000E+000	0,0000000E+000	0,000000000000000E+000
3	1	0	1	0	0	0	3,215299918774690E+001	0,000000000000000E+000	6,092006547583474E-010	0,0000000E+000	3,4218006E+000	39	0,000000000000000E+000	0	0,0000000E+000	0,000000000000000E+000	0,000000000000000E+000	0,000000000000000E+000	0,000000000000000E+000	0,000000000000000E+000	0,000000000000000E+000	0,000000000000000E+000	0,000000000000000E+000	0,000000000000000E+000	0,0000000E+000	0,0000000E+000	0,0000000E+000	0,000000000000000E+000
3	1	0	1	0	0	0	3,315299916248478E+001	0,000000000000000E+000	6,092006547583474E-010	0,0000000E+000	3,4216900E+000	39	0,000000000000000E+000	0	0,0000000E+000	0,000000000000000E+000	0,000000000000000E+000	0,000000000000000E+000	0,000000000000000E+000	0,000000000000000E+000	0,000000000000000E+000	0,000000000000000E+000	0,000000000000000E+000	0,000000000000000E+000	0,0000000E+000	0,0000000E+000	0,0000000E+000	0,000000000000000E+000
3	1	0	1	0	0	0	3,415299913722265E+001	0,000000000000000E+000	6,092006547583474E-010	0,0000000E+000	3,4216595E+000	39	0,000000000000000E+000	0	0,0000000E+000	0,000000000000000E+000	0,000000000000000E+000	0,000000000000000E+000	0,000000000000000E+000	0,000000000000000E+000	0,000000000000000E+000	0,000000000000000E+000	0,000000000000000E+000	0,000000000000000E+000	0,0000000E+000	0,0000000E+000	0,0000000E+000	0,000000000000000E+000
3	1	0	1	0	0	0	3,515299911196053E+001	0,000000000000000E+000	6,092006547583474E-010	0,0000000E+000	3,4215567E+000	39	0,000000000000000E+000	0	0,0000000E+000	0,000000000000000E+000	0,000000000000000E+000	0,000000000000000E+000	0,000000000000000E+000	0,000000000000000E+000	0,000000000000000E+000	0,000000000000000E+000	0,000000000000000E+000	0,000000000000000E+000	0,0000000E+000	0,0000000E+000	0,0000000E+000	0,000000000000000E+000
3	1	0	1	0	0	0	3,615299908669840E+001	0,000000000000000E+000	6,092006547583474E-010	0,0000000E+000	3,4215872E+000	39	0,000000000000000E+000	0	0,0000000E+000	0,000000000000000E+000	0,000000000000000E+000	0,000000000000000E+000	0,000000000000000E+000	0,000000000000000E+000	0,000000000000000E+000	0,000000000000000E+000	0,000000000000000E+000	0,000000000000000E+000	0,0000000E+000	0,0000000E+000	0,0000000E+000	0,000000000000000E+000
3	1	0	1	0	0	0	3,715299906143628E+001	0,000000000000000E+000	6,092006547583474E-010	0,0000000E+000	3,4215033E+000	39	0,000000000000000E+000	0	0,0000000E+000	0,000000000000000E+000	0,000000000000000E+000	0,000000000000000E+000	0,000000000000000E+000	0,000000000000000E+000	0,000000000000000E+000	0,000000000000000E+000	0,000000000000000E+000	0,000000000000000E+000	0,0000000E+000	0,0000000E+000	0,0000000E+000	0,000000000000000E+000
3	1	0	1	0	0	0	3,815299903617415E+001	0,000000000000000E+000	6,092006547583474E-010	0,0000000E+000	3,4215071E+000	39	0,000000000000000E+000	0	0,0000000E+000	0,000000000000000E+000	0,000000000000000E+000	0,000000000000000E+000	0,000000000000000E+000	0,000000000000000E+000	0,000000000000000E+000	0,000000000000000E+000	0,000000000000000E+000	0,000000000000000E+000	0,0000000E+000	0,0000000E+000	0,0000000E+000	0,000000000000000E+000
3	1	0	1	0	0	0	3,915299901091203E+001	0,000000000000000E+000	6,092006547583474E-010	0,0000000E+000	3,4214385E+000	39	0,000000000000000E+000	0	0,0000000E+000	0,000000000000000E+000	0,000000000000000E+000	0,000000000000000E+000	0,000000000000000E+000	0,000000000000000E+000	0,000000000000000E+000	0,000000000000000E+000	0,000000000000000E+000	0,000000000000000E+000	0,0000000E+000	0,0000000E+000	0,0000000E+000	0,000000000000000E+000
3	1	0	0	0	0	0	4,015279898565495E+001	0,000000000000000E+000	6,092006547583474E-010	3,0000001E-002	3,4215567E+000	41	0,000000000000000E+000	0	0,0000000E+000	0,000000000000000E+000	0,000000000000000E+000	0,000000000000000E+000	0,000000000000000E+000	0,000000000000000E+000	0,000000000000000E+000	0,000000000000000E+000	0,000000000000000E+000	0,000000000000000E+000	0,0000000E+000	0,0000000E+000	0,0000000E+000	0,000000000000000E+000
1	1	0	0	1	0	1	4,015319898564485E+001	3,283269392947356E-009	3,892470047705703E-009	3,0000001E-002	3,4233973E+000	41	3,283269392947356E-009	0	1,0115942E-004	1,123993558361561E-011	0,000000000000000E+000	0,000000000000000E+000	0,000000000000000E+000	4,015319898564485E+001	2,954942528300747E-002	0,000000000000000E+000	3,283269392947356E-009	3,283269392947356E-009	0,0000000E+000	0,0000000E+000	3,0000001E-002	0,000000000000000E+000
1	1	0	0	0	0	1	4,115319896038272E+001	8,335556514561177E-006	8,339448984608882E-006	3,0000001E-002	3,4278398E+000	41	8,338839783954125E-006	0	1,0286264E-004	2,858419194468093E-008	0,000000000000000E+000	6,757487501760989E+003	0,000000000000000E+000	4,115319896038272E+001	3,000800421048619E-002	0,000000000000000E+000	8,338839783954125E-006	8,338839783954125E-006	0,0000000E+000	0,0000000E+000	3,0000001E-002	0,000000000000000E+000
1	1	0	0	0	0	1	4,215319893512060E+001	8,335802383617394E-006	1,667525136822628E-005	3,0000001E-002	3,4283619E+000	41	1,667464216757152E-005	0	1,0288133E-004	5,716233918175426E-008	0,000000000000000E+000	1,209137329065216E+004	0,000000000000000E+000	4,215319893512060E+001	3,000888933911093E-002	0,000000000000000E+000	1,667464216757152E-005	1,667464216757152E-005	0,0000000E+000	0,0000000E+000	3,0000001E-002	0,000000000000000E+000
1	1	0	0	0	0	1	4,315319890985847E+001	8,335947798461550E-006	2,501119916668783E-005	3,0000001E-002	3,4286327E+000	41	2,501058996603307E-005	0	1,0289126E-004	8,574324269086432E-008	0,000000000000000E+000	1,719783519890763E+004	0,000000000000000E+000	4,315319890985847E+001	3,000941283256311E-002	0,000000000000000E+000	2,501058996603307E-005	2,501058996603307E-005	0,0000000E+000	0,0000000E+000	3,0000001E-002	0,000000000000000E+000
1	1	0	0	0	0	1	4,415319888459635E+001	8,336001531634894E-006	3,334720069832272E-005	3,0000001E-002	3,4288385E+000	41	3,334659149766797E-005	0	1,0289810E-004	1,143260456072353E-007	0,000000000000000E+000	2,206277589948844E+004	0,000000000000000E+000	4,415319888459635E+001	3,000960627199204E-002	0,000000000000000E+000	3,334659149766797E-005	3,334659149766797E-005	0,0000000E+000	0,0000000E+000	3,0000001E-002	0,000000000000000E+000
1	1	0	0	0	0	1	4,515319885933422E+001	8,336208415735099E-006	4,168340911405782E-005	3,0000001E-002	3,4289911E+000	41	4,168279991340307E-005	0	1,0290523E-004	1,429108299002304E-007	0,000000000000000E+000	2,682589736035931E+004	0,000000000000000E+000	4,515319885933422E+001	3,001035105477159E-002	0,000000000000000E+000	4,168279991340307E-005	4,168279991340307E-005	0,0000000E+000	0,0000000E+000	3,0000001E-002	0,000000000000000E+000
1	1	0	0	0	0	1	4,615319883407210E+001	8,336362775518662E-006	5,001977188957648E-005	3,0000001E-002	3,4291551E+000	41	5,001916268892172E-005	0	1,0291205E-004	1,714975109216585E-007	0,000000000000000E+000	3,127387440637940E+004	0,000000000000000E+000	4,615319883407210E+001	3,001090675000645E-002	0,000000000000000E+000	5,001916268892172E-005	5,001916268892172E-005	0,0000000E+000	0,0000000E+000	3,0000001E-002	0,000000000000000E+000
1	1	0	0	0	0	1	4,715319880880998E+001	8,336469729430973E-006	5,835624161900746E-005	3,0000001E-002	3,4292235E+000	41	5,835563241835270E-005	0	1,0291543E-004	2,000851291370215E-007	0,000000000000000E+000	3,605763984570017E+004	0,000000000000000E+000	4,715319880880998E+001	3,001129178410050E-002	0,000000000000000E+000	5,835563241835270E-005	5,835563241835270E-005	0,0000000E+000	0,0000000E+000	3,0000001E-002	0,000000000000000E+000
1	1	0	0	0	0	1	4,815319878354785E+001	8,336456545214686E-006	6,669269816422215E-005	3,0000001E-002	3,4293113E+000	41	6,669208896356738E-005	0	1,0291790E-004	2,286734335650934E-007	0,000000000000000E+000	4,059733214391000E+004	0,000000000000000E+000	4,815319878354785E+001	3,001124432092067E-002	0,000000000000000E+000	6,669208896356738E-005	6,669208896356738E-005	0,0000000E+000	0,0000000E+000	3,0000001E-002	0,000000000000000E+000
1	1	0	0	0	0	1	4,915319875828573E+001	8,336504122759733E-006	7,502920228698187E-005	3,0000001E-002	3,4294219E+000	41	7,502859308632711E-005	0	1,0292180E-004	2,572628233873220E-007	0,000000000000000E+000	4,483334604245814E+004	0,000000000000000E+000	4,915319875828573E+001	3,001141560008716E-002	0,000000000000000E+000	7,502859308632711E-005	7,502859308632711E-005	0,0000000E+000	0,0000000E+000	3,0000001E-002	0,000000000000000E+000
1	1	0	0	0	0	1	5,015279873303371E+001	8,333035951169828E-006	8,336223823815171E-005	3,0000001E-002	3,4295173E+000	41	8,336162903749694E-005	0	1,0292302E-004	2,858411140861778E-007	0,000000000000000E+000	4,903652073811066E+004	0,000000000000000E+000	5,015279873303371E+001	3,001093455587045E-002	0,000000000000000E+000	8,336162903749694E-005	8,336162903749694E-005	0,0000000E+000	0,0000000E+000	3,0000001E-002	0,000000000000000E+000
1	0	0	1	1	0	2	5,015339873301855E+001	-3,230528905987740E-009	8,335900770924572E-005	-3,0000001E-002	3,4255755E+000	41	-3,230528905987740E-009	1	-6,6398527E-005	2,858411140861778E-007	1,106642065548558E-011	4,903652073811066E+004	0,000000000000000E+000	0,000000000000000E+000	-1,938317392558660E-002	3,230528905987740E-009	0,000000000000000E+000	3,230528905987740E-009	0,0000000E+000	0,0000000E+000	-3,0000001E-002	0,000000000000000E+000
1	0	0	1	0	0	2	5,115339870775642E+001	-8,331741723231971E-006	7,502726598601374E-005	-3,0000001E-002	3,4168062E+000	41	-8,334972252137958E-006	1	-1,0248461E-004	2,858411140861778E-007	2,847901337242890E-008	4,903652073811066E+004	3,421708676906895E+003	9,999999747378752E-001	-2,999427096135411E-002	8,334972252137958E-006	0,000000000000000E+000	8,334972252137958E-006	0,0000000E+000	0,0000000E+000	-3,0000001E-002	0,000000000000000E+000
1	0	0	1	0	0	2	5,215339868249430E+001	-8,331645015316705E-006	6,669562097069703E-005	-3,0000001E-002	3,4158912E+000	41	-1,666661726745467E-005	1	-1,0245598E-004	2,858411140861778E-007	5,693900601600381E-008	4,903652073811066E+004	6,195561045246683E+003	1,999999949475750E+000	-2,999392281285036E-002	1,666661726745467E-005	0,000000000000000E+000	1,666661726745467E-005	0,0000000E+000	0,0000000E+000	-3,0000001E-002	0,000000000000000E+000
1	0	0	1	0	0	2	5,315339865723217E+001	-8,331726053626172E-006	5,836389491707086E-005	-3,0000001E-002	3,4153802E+000	41	-2,499834332108084E-005	1	-1,0244165E-004	2,858411140861778E-007	8,539501854037510E-008	4,903652073811066E+004	8,827050769045823E+003	2,999999924213625E+000	-2,999421455077181E-002	2,499834332108084E-005	0,000000000000000E+000	2,499834332108084E-005	0,0000000E+000	0,0000000E+000	-3,0000001E-002	0,000000000000000E+000
1	0	0	1	0	0	2	5,415339863197005E+001	-8,331782053742144E-006	5,003211286332872E-005	-3,0000001E-002	3,4149687E+000	41	-3,333012537482299E-005	1	-1,0242999E-004	2,858411140861778E-007	1,138477937109076E-007	4,903652073811066E+004	1,131244473674783E+004	3,999999898951501E+000	-2,999441615119440E-002	3,333012537482299E-005	0,000000000000000E+000	3,333012537482299E-005	0,0000000E+000	0,0000000E+000	-3,0000001E-002	0,000000000000000E+000
1	0	0	1	0	0	2	5,515339860670792E+001	-8,331589446506567E-006	4,170052341682216E-005	-3,0000001E-002	3,4147170E+000	41	-4,166171482132955E-005	1	-1,0242007E-004	2,858411140861778E-007	1,422978134893160E-007	4,903652073811066E+004	1,381237549708112E+004	4,999999873689376E+000	-2,999372276512881E-002	4,166171482132955E-005	0,000000000000000E+000	4,166171482132955E-005	0,0000000E+000	0,0000000E+000	-3,0000001E-002	0,000000000000000E+000
1	0	0	1	0	0	2	5,615339858144580E+001	-8,331378152593971E-006	3,336914526422818E-005	-3,0000001E-002	3,4144692E+000	41	-4,999309297392352E-005	1	-1,0241005E-004	2,858411140861778E-007	1,707450479356182E-007	4,903652073811066E+004	1,620484785004052E+004	5,999999848427251E+000	-2,999296210702425E-002	4,999309297392352E-005	0,000000000000000E+000	4,999309297392352E-005	0,0000000E+000	0,0000000E+000	-3,0000001E-002	0,000000000000000E+000
1	0	0	1	0	0	2	5,715339855618367E+001	-8,331232019803590E-006	2,503791324442460E-005	-3,0000001E-002	3,4142518E+000	41	-5,832432499372711E-005	1	-1,0240173E-004	2,858411140861778E-007	1,991899718917062E-007	4,903652073811066E+004	1,854232695287004E+004	6,999999823165126E+000	-2,999243602896558E-002	5,832432499372711E-005	0,000000000000000E+000	5,832432499372711E-005	0,0000000E+000	0,0000000E+000	-3,0000001E-002	0,000000000000000E+000
1	0	0	1	0	0	2	5,815339853092155E+001	-8,331253224673371E-006	1,670666001975122E-005	-3,0000001E-002	3,4140499E+000	41	-6,665557821840048E-005	1	-1,0239593E-004	2,858411140861778E-007	2,276332858288131E-007	4,903652073811066E+004	2,081969157332134E+004	7,999999797903001E+000	-2,999251236649873E-002	6,665557821840048E-005	0,000000000000000E+000	6,665557821840048E-005	0,0000000E+000	0,0000000E+000	-3,0000001E-002	0,000000000000000E+000
1	0	0	1	0	0	2	5,915339850565942E+001	-8,331287681125104E-006	8,375372338626120E-006	-3,0000001E-002	3,4139125E+000	41	-7,498686589952559E-005	1	-1,0239224E-004	2,858411140861778E-007	2,560755732737123E-007	4,903652073811066E+004	2,314615809565881E+004	8,999999772640876E+000	-2,999263640972810E-002	7,498686589952559E-005	0,000000000000000E+000	7,498686589952559E-005	0,0000000E+000	0,0000000E+000	-3,0000001E-002	0,000000000000000E+000
1	0	0	1	0	0	2	6,015299848040740E+001	-8,327967053900163E-006	4,740528472595745E-008	-3,0000001E-002	3,4137828E+000	41	-8,331483295342575E-005	1	-1,0238849E-004	2,858411140861778E-007	2,845054442528181E-007	4,903652073811066E+004	2,543390589982588E+004	9,999599747388856E+000	-2,999267922310556E-002	8,331483295342575E-005	0,000000000000000E+000	8,331483295342575E-005	0,0000000E+000	0,0000000E+000	-3,0000001E-002	0,000000000000000E+000
3	1	0	0	0	0	0	2,305735985598149E+002	0,000000000000000E+000	7,263989084296757E-010	0,0000000E+000	3,4320791E+000	39	-8,331483295342575E-005	1	0,0000000E+000	2,858411140861778E-007	2,845054442528181E-007	4,903652073811066E+004	2,543390589982588E+004	0,000000000000000E+000	0,000000000000000E+000	8,331483295342575E-005	0,000000000000000E+000	8,331483295342575E-005	0,0000000E+000	0,0000000E+000	0,0000000E+000	0,000000000000000E+000
3	1	0	0	0	0	0	2,315735985345527E+002	0,000000000000000E+000	7,263989084296757E-010	0,0000000E+000	3,4309163E+000	39	-8,331483295342575E-005	1	0,0000000E+000	2,858411140861778E-007	2,845054442528181E-007	4,903652073811066E+004	2,543390589982588E+004	0,000000000000000E+000	0,000000000000000E+000	8,331483295342575E-005	0,000000000000000E+000	8,331483295342575E-005	0,0000000E+000	0,0000000E+000	0,0000000E+000	0,000000000000000E+000
3	1	0	0	0	0	0	2,325735985092906E+002	0,000000000000000E+000	7,263989084296757E-010	0,0000000E+000	3,4307296E+000	39	-8,331483295342575E-005	1	0,0000000E+000	2,858411140861778E-007	2,845054442528181E-007	4,903652073811066E+004	2,543390589982588E+004	0,000000000000000E+000	0,000000000000000E+000	8,331483295342575E-005	0,000000000000000E+000	8,331483295342575E-005	0,0000000E+000	0,0000000E+000	0,0000000E+000	0,000000000000000E+000
3	1	0	0	0	0	0	2,335735984840285E+002	0,000000000000000E+000	7,263989084296757E-010	0,0000000E+000	3,4305885E+000	39	-8,331483295342575E-005	1	0,0000000E+000	2,858411140861778E-007	2,845054442528181E-007	4,903652073811066E+004	2,543390589982588E+004	0,000000000000000E+000	0,000000000000000E+000	8,331483295342575E-005	0,000000000000000E+000	8,331483295342575E-005	0,0000000E+000	0,0000000E+000	0,0000000E+000	0,000000000000000E+000
3	1	0	0	0	0	0	2,345735984587664E+002	0,000000000000000E+000	7,263989084296757E-010	0,0000000E+000	3,4304969E+000	39	-8,331483295342575E-005	1	0,0000000E+000	2,858411140861778E-007	2,845054442528181E-007	4,903652073811066E+004	2,543390589982588E+004	0,000000000000000E+000	0,000000000000000E+000	8,331483295342575E-005	0,000000000000000E+000	8,331483295342575E-005	0,0000000E+000	0,0000000E+000	0,0000000E+000	0,000000000000000E+000
3	1	0	0	0	0	0	2,355735984335042E+002	0,000000000000000E+000	7,263989084296757E-010	0,0000000E+000	3,4303484E+000	39	-8,331483295342575E-005	1	0,0000000E+000	2,858411140861778E-007	2,845054442528181E-007	4,903652073811066E+004	2,543390589982588E+004	0,000000000000000E+000	0,000000000000000E+000	8,331483295342575E-005	0,000000000000000E+000	8,331483295342575E-005	0,0000000E+000	0,0000000E+000	0,0000000E+000	0,000000000000000E+000
3	1	0	0	0	0	0	2,365735984082421E+002	0,000000000000000E+000	7,263989084296757E-010	0,0000000E+000	3,4303179E+000	39	-8,331483295342575E-005	1	0,0000000E+000	2,858411140861778E-007	2,845054442528181E-007	4,903652073811066E+004	2,543390589982588E+004	0,000000000000000E+000	0,000000000000000E+000	8,331483295342575E-005	0,000000000000000E+000	8,331483295342575E-005	0,0000000E+000	0,0000000E+000	0,0000000E+000	0,000000000000000E+000
3	1	0	0	0	0	0	2,375735983829800E+002	0,000000000000000E+000	7,263989084296757E-010	0,0000000E+000	3,4302530E+000	39	-8,331483295342575E-005	1	0,0000000E+000	2,858411140861778E-007	2,845054442528181E-007	4,903652073811066E+004	2,543390589982588E+004	0,000000000000000E+000	0,000000000000000E+000	8,331483295342575E-005	0,000000000000000E+000	8,331483295342575E-005	0,0000000E+000	0,0000000E+000	0,0000000E+000	0,000000000000000E+000
3	1	0	0	0	0	0	2,385735983577179E+002	0,000000000000000E+000	7,263989084296757E-010	0,0000000E+000	3,4302187E+000	39	-8,331483295342575E-005	1	0,0000000E+000	2,858411140861778E-007	2,845054442528181E-007	4,903652073811066E+004	2,543390589982588E+004	0,000000000000000E+000	0,000000000000000E+000	8,331483295342575E-005	0,000000000000000E+000	8,331483295342575E-005	0,0000000E+000	0,0000000E+000	0,0000000E+000	0,000000000000000E+000
3	1	0	0	0	0	0	2,395735983324557E+002	0,000000000000000E+000	7,263989084296757E-010	0,0000000E+000	3,4301348E+000	39	-8,331483295342575E-005	1	0,0000000E+000	2,858411140861778E-007	2,845054442528181E-007	4,903652073811066E+004	2,543390589982588E+004	0,000000000000000E+000	0,000000000000000E+000	8,331483295342575E-005	0,000000000000000E+000	8,331483295342575E-005	0,0000000E+000	0,0000000E+000	0,0000000E+000	0,000000000000000E+000
3	1	0	1	0	0	0	2,405733983071987E+002	0,000000000000000E+000	7,263989084296757E-010	3,0000001E-002	3,4301767E+000	41	-8,331483295342575E-005	1	0,0000000E+000	2,858411140861778E-007	2,845054442528181E-007	4,903652073811066E+004	2,543390589982588E+004	0,000000000000000E+000	0,000000000000000E+000	8,331483295342575E-005	0,000000000000000E+000	8,331483295342575E-005	9,9943863E+001	0,0000000E+000	0,0000000E+000	0,000000000000000E+000
1	1	0	1	1	0	1	2,405737983071886E+002	3,282633506589466E-009	4,009032415019142E-009	3,0000001E-002	3,4320765E+000	41	3,282633506589466E-009	2	1,0139624E-004	1,126624916561091E-011	0,000000000000000E+000	0,000000000000000E+000	0,000000000000000E+000	0,000000000000000E+000	2,954370230564189E-002	0,000000000000000E+000	3,282633506589466E-009	3,282633506589466E-009	0,0000000E+000	0,0000000E+000	3,0000001E-002	1,000000000000000E+000
1	1	0	1	0	0	1	2,415737982819264E+002	8,334863573933641E-006	8,338872606348660E-006	3,0000001E-002	3,4363720E+000	41	8,338146207440230E-006	2	1,0311009E-004	2,865295840603384E-008	0,000000000000000E+000	6,987944272943609E+003	0,000000000000000E+000	9,999999747378752E-001	3,000550962416404E-002	0,000000000000000E+000	8,338146207440230E-006	8,338146207440230E-006	0,0000000E+000	0,0000000E+000	3,0000001E-002	1,000000000000000E+000
1	1	0	1	0	0	1	2,425737982566643E+002	8,335147986809412E-006	1,667402059315807E-005	3,0000001E-002	3,4367609E+000	41	1,667329419424964E-005	2	1,0312528E-004	5,729886912285839E-008	0,000000000000000E+000	1,281343201932131E+004	0,000000000000000E+000	1,999999949475750E+000	3,000653351054268E-002	0,000000000000000E+000	1,667329419424964E-005	1,667329419424964E-005	0,0000000E+000	0,0000000E+000	3,0000001E-002	1,000000000000000E+000
1	1	0	1	0	0	1	2,435737982314022E+002	8,335358705268138E-006	2,500937929842621E-005	3,0000001E-002	3,4369631E+000	41	2,500865289951778E-005	2	1,0313396E-004	8,594718926275652E-008	0,000000000000000E+000	1,842398587079491E+004	0,000000000000000E+000	2,999999924213625E+000	3,000729209701326E-002	0,000000000000000E+000	2,500865289951778E-005	2,500865289951778E-005	0,0000000E+000	0,0000000E+000	3,0000001E-002	1,000000000000000E+000
1	1	0	1	0	0	1	2,445737982061401E+002	8,335657091293898E-006	3,334503638972011E-005	3,0000001E-002	3,4370925E+000	41	3,334430999081168E-005	2	1,0314153E-004	1,145976140893163E-007	0,000000000000000E+000	2,393090080223039E+004	0,000000000000000E+000	3,999999898951501E+000	3,000836628673313E-002	0,000000000000000E+000	3,334430999081168E-005	3,334430999081168E-005	0,0000000E+000	0,0000000E+000	3,0000001E-002	1,000000000000000E+000
1	1	0	1	0	0	1	2,455737981808779E+002	8,335681213790344E-006	4,168071760351046E-005	3,0000001E-002	3,4372489E+000	41	4,167999120460203E-005	2	1,0314653E-004	1,432494255492424E-007	0,000000000000000E+000	2,900884046028751E+004	0,000000000000000E+000	4,999999873689376E+000	3,000845312772252E-002	0,000000000000000E+000	4,167999120460203E-005	4,167999120460203E-005	0,0000000E+000	0,0000000E+000	3,0000001E-002	1,000000000000000E+000
1	1	0	1	0	0	1	2,465737981556158E+002	8,335744898352359E-006	5,001646250186281E-005	3,0000001E-002	3,4372947E+000	41	5,001573610295439E-005	2	1,0314869E-004	1,719018374889814E-007	0,000000000000000E+000	3,450506360846337E+004	0,000000000000000E+000	5,999999848427251E+000	3,000868239215157E-002	0,000000000000000E+000	5,001573610295439E-005	5,001573610295439E-005	0,0000000E+000	0,0000000E+000	3,0000001E-002	1,000000000000000E+000
1	1	0	1	0	0	1	2,475737981303537E+002	8,335803385306564E-006	5,835226588716938E-005	3,0000001E-002	3,4373748E+000	41	5,835153948826095E-005	2	1,0315182E-004	2,005551182355134E-007	0,000000000000000E+000	3,964715581759327E+004	0,000000000000000E+000	6,999999823165126E+000	3,000889294519203E-002	0,000000000000000E+000	5,835153948826095E-005	5,835153948826095E-005	0,0000000E+000	0,0000000E+000	3,0000001E-002	1,000000000000000E+000
1	1	0	1	0	0	1	2,485737981050916E+002	8,335950452006526E-006	6,668821633917590E-005	3,0000001E-002	3,4374321E+000	41	6,668748994026748E-005	2	1,0315535E-004	2,292093814923291E-007	0,000000000000000E+000	4,482693232885746E+004	0,000000000000000E+000	7,999999797903001E+000	3,000942238532527E-002	0,000000000000000E+000	6,668748994026748E-005	6,668748994026748E-005	0,0000000E+000	0,0000000E+000	3,0000001E-002	1,000000000000000E+000
1	1	0	1	0	0	1	2,495737980798294E+002	8,336167044937610E-006	7,502438338411351E-005	3,0000001E-002	3,4374893E+000	41	7,502365698520509E-005	2	1,0315975E-004	2,578648662719325E-007	0,000000000000000E+000	4,989733905279589E+004	0,000000000000000E+000	8,999999772640876E+000	3,001020211989687E-002	0,000000000000000E+000	7,502365698520509E-005	7,502365698520509E-005	0,0000000E+000	0,0000000E+000	3,0000001E-002	1,000000000000000E+000
1	1	0	1	0	0	1	2,505733980545774E+002	8,332776679346958E-006	8,335716006346047E-005	3,0000001E-002	3,4375882E+000	41	8,335643366455206E-005	2	1,0316203E-004	2,865095211820347E-007	0,000000000000000E+000	5,444415621255624E+004	0,000000000000000E+000	9,999599747388856E+000	3,001000080378370E-002	0,000000000000000E+000	8,335643366455206E-005	8,335643366455206E-005	0,0000000E+000	0,0000000E+000	3,0000001E-002	1,000000000000000E+000
1	0	0	0	1	0	2	2,505739980545623E+002	-3,230062313377857E-009	8,335393000114710E-005	-3,0000001E-002	3,4334657E+000	41	-3,230062313377857E-009	3	-6,6541848E-005	2,865095211820347E-007	1,109030822393708E-011	5,444415621255624E+004	0,000000000000000E+000	0,000000000000000E+000	-1,938037436985658E-002	3,230062313377857E-009	0,000000000000000E+000	3,230062313377857E-009	0,0000000E+000	0,0000000E+000	-3,0000001E-002	1,000000000000000E+000
1	0	0	0	0	0	2	2,515739980293001E+002	-8,332301405775878E-006	7,502162859537122E-005	-3,0000001E-002	3,4250832E+000	41	-8,335531468089255E-006	3	-1,0273977E-004	2,865095211820347E-007	2,854991554052740E-008	5,444415621255624E+004	3,579803484838519E+003	9,999999747378752E-001	-2,999628581856308E-002	8,335531468089255E-006	0,000000000000000E+000	8,335531468089255E-006	0,0000000E+000	0,0000000E+000	-3,0000001E-002	1,000000000000000E+000
1	0	0	0	0	0	2	2,525739980040380E+002	-8,332241969493529E-006	6,668938662587769E-005	-3,0000001E-002	3,4241948E+000	41	-1,666777343758278E-005	3	-1,0271239E-004	2,865095211820347E-007	5,708113527125044E-008	5,444415621255624E+004	6,472288843545069E+003	1,999999949475750E+000	-2,999607184794121E-002	1,666777343758278E-005	0,000000000000000E+000	1,666777343758278E-005	0,0000000E+000	0,0000000E+000	-3,0000001E-002	1,000000000000000E+000
1	0	0	0	0	0	2	2,535739979787759E+002	-8,332278015195496E-006	5,835710861068219E-005	-3,0000001E-002	3,4236801E+000	41	-2,500005145277828E-005	3	-1,0269740E-004	2,865095211820347E-007	8,560818942509733E-008	5,444415621255624E+004	9,197157609173997E+003	2,999999924213625E+000	-2,999620161247158E-002	2,500005145277828E-005	0,000000000000000E+000	2,500005145277828E-005	0,0000000E+000	0,0000000E+000	-3,0000001E-002	1,000000000000000E+000
1	0	0	0	0	0	2	2,545739979535138E+002	-8,332332636229693E-006	5,002477597445249E-005	-3,0000001E-002	3,4233255E+000	41	-3,333238408900797E-005	3	-1,0268744E-004	2,865095211820347E-007	1,141324765351065E-007	5,444415621255624E+004	1,183377176390456E+004	3,999999898951501E+000	-2,999639824819965E-002	3,333238408900797E-005	0,000000000000000E+000	3,333238408900797E-005	0,0000000E+000	0,0000000E+000	-3,0000001E-002	1,000000000000000E+000
1	0	0	0	0	0	2	2,555739979282516E+002	-8,332299070329302E-006	4,169247690412319E-005	-3,0000001E-002	3,4231045E+000	41	-4,166468315933727E-005	3	-1,0268039E-004	2,865095211820347E-007	1,426548071831746E-007	5,444415621255624E+004	1,447640595614588E+004	4,999999873689376E+000	-2,999627741095519E-002	4,166468315933727E-005	0,000000000000000E+000	4,166468315933727E-005	0,0000000E+000	0,0000000E+000	-3,0000001E-002	1,000000000000000E+000
1	0	0	0	0	0	2	2,565739979029895E+002	-8,332306596347027E-006	3,336017030777617E-005	-3,0000001E-002	3,4228339E+000	41	-4,999698975568430E-005	3	-1,0267237E-004	2,865095211820347E-007	1,711749088290344E-007	5,444415621255624E+004	1,692932224413725E+004	5,999999848427251E+000	-2,999630450461969E-002	4,999698975568430E-005	0,000000000000000E+000	4,999698975568430E-005	0,0000000E+000	0,0000000E+000	-3,0000001E-002	1,000000000000000E+000
1	0	0	0	0	0	2	2,575739978777274E+002	-8,332200073533588E-006	2,502797023424258E-005	-3,0000001E-002	3,4226394E+000	41	-5,832918982921789E-005	3	-1,0266522E-004	2,865095211820347E-007	1,996930248391323E-007	5,444415621255624E+004	1,939574258809515E+004	6,999999823165126E+000	-2,999592102248162E-002	5,832918982921789E-005	0,000000000000000E+000	5,832918982921789E-005	0,0000000E+000	0,0000000E+000	-3,0000001E-002	1,000000000000000E+000
1	0	0	0	0	0	2	2,585739978524653E+002	-8,332220934848818E-006	1,669574929939376E-005	-3,0000001E-002	3,4224565E+000	41	-6,666141076406670E-005	3	-1,0265999E-004	2,865095211820347E-007	2,282096885613254E-007	5,444415621255624E+004	2,179819816632287E+004	7,999999797903001E+000	-2,999599612321834E-002	6,666141076406670E-005	0,000000000000000E+000	6,666141076406670E-005	0,0000000E+000	0,0000000E+000	-3,0000001E-002	1,000000000000000E+000
1	0	0	0	0	0	2	2,595739978272031E+002	-8,332098805449075E-006	8,363650493944684E-006	-3,0000001E-002	3,4223306E+000	41	-7,499350956951578E-005	3	-1,0265471E-004	2,865095211820347E-007	2,567248854146207E-007	5,444415621255624E+004	2,424554808541559E+004	8,999999772640876E+000	-2,999555645736816E-002	7,499350956951578E-005	0,000000000000000E+000	7,499350956951578E-005	0,0000000E+000	0,0000000E+000	-3,0000001E-002	1,000000000000000E+000
1	0	0	0	0	0	2	2,605735978019511E+002	-8,328744080228110E-006	3,490641371657451E-008	-3,0000001E-002	3,4221132E+000	41	-8,332225364974389E-005	3	-1,0264791E-004	2,865095211820347E-007	2,852267903057532E-007	5,444415621255624E+004	2,642229297672395E+004	9,999599747388856E+000	-2,999547763732253E-002	8,332225364974389E-005	0,000000000000000E+000	8,332225364974389E-005	0,0000000E+000	0,0000000E+000	-3,0000001E-002	1,000000000000000E+000
3	1	0	0	0	0	0	4,303841978523851E+002	0,000000000000000E+000	7,117465138435364E-010	0,0000000E+000	3,4373558E+000	39	-8,332225364974389E-005	3	0,0000000E+000	2,865095211820347E-007	2,852267903057532E-007	5,444415621255624E+004	2,642229297672395E+004	0,000000000000000E+000	0,000000000000000E+000	8,332225364974389E-005	0,000000000000000E+000	8,332225364974389E-005	0,0000000E+000	0,0000000E+000	0,0000000E+000	1,000000000000000E+000
3	1	0	0	0	0	0	4,313841978271230E+002	0,000000000000000E+000	7,117465138435364E-010	0,0000000E+000	3,4363072E+000	39	-8,332225364974389E-005	3	0,0000000E+000	2,865095211820347E-007	2,852267903057532E-007	5,444415621255624E+004	2,642229297672395E+004	0,000000000000000E+000	0,000000000000000E+000	8,332225364974389E-005	0,000000000000000E+000	8,332225364974389E-005	0,0000000E+000	0,0000000E+000	0,0000000E+000	1,000000000000000E+000
3	1	0	0	0	0	0	4,323841978018609E+002	0,000000000000000E+000	7,117465138435364E-010	0,0000000E+000	3,4360862E+000	39	-8,332225364974389E-005	3	0,0000000E+000	2,865095211820347E-007	2,852267903057532E-007	5,444415621255624E+004	2,642229297672395E+004	0,000000000000000E+000	0,000000000000000E+000	8,332225364974389E-005	0,000000000000000E+000	8,332225364974389E-005	0,0000000E+000	0,0000000E+000	0,0000000E+000	1,000000000000000E+000
3	1	0	0	0	0	0	4,333841977765987E+002	0,000000000000000E+000	7,117465138435364E-010	0,0000000E+000	3,4359374E+000	39	-8,332225364974389E-005	3	0,0000000E+000	2,865095211820347E-007	2,852267903057532E-007	5,444415621255624E+004	2,642229297672395E+004	0,000000000000000E+000	0,000000000000000E+000	8,332225364974389E-005	0,000000000000000E+000	8,332225364974389E-005	0,0000000E+000	0,0000000E+000	0,0000000E+000	1,000000000000000E+000
3	1	0	0	0	0	0	4,343841977513366E+002	0,000000000000000E+000	7,117465138435364E-010	0,0000000E+000	3,4358687E+000	39	-8,332225364974389E-005	3	0,0000000E+000	2,865095211820347E-007	2,852267903057532E-007	5,444415621255624E+004	2,642229297672395E+004	0,000000000000000E+000	0,000000000000000E+000	8,332225364974389E-005	0,000000000000000E+000	8,332225364974389E-005	0,0000000E+000	0,0000000E+000	0,0000000E+000	1,000000000000000E+000
3	1	0	0	0	0	0	4,353841977260745E+002	0,000000000000000E+000	7,117465138435364E-010	0,0000000E+000	3,4358153E+000	39	-8,332225364974389E-005	3	0,0000000E+000	2,865095211820347E-007	2,852267903057532E-007	5,444415621255624E+004	2,642229297672395E+004	0,000000000000000E+000	0,000000000000000E+000	8,332225364974389E-005	0,000000000000000E+000	8,332225364974389E-005	0,0000000E+000	0,0000000E+000	0,0000000E+000	1,000000000000000E+000
3	1	0	0	0	0	0	4,363841977008124E+002	0,000000000000000E+000	7,117465138435364E-010	0,0000000E+000	3,4357622E+000	39	-8,332225364974389E-005	3	0,0000000E+000	2,865095211820347E-007	2,852267903057532E-007	5,444415621255624E+004	2,642229297672395E+004	0,000000000000000E+000	0,000000000000000E+000	8,332225364974389E-005	0,000000000000000E+000	8,332225364974389E-005	0,0000000E+000	0,0000000E+000	0,0000000E+000	1,000000000000000E+000
3	1	0	0	0	0	0	4,373841976755502E+002	0,000000000000000E+000	7,117465138435364E-010	0,0000000E+000	3,4356477E+000	39	-8,332225364974389E-005	3	0,0000000E+000	2,865095211820347E-007	2,852267903057532E-007	5,444415621255624E+004	2,642229297672395E+004	0,000000000000000E+000	0,000000000000000E+000	8,332225364974389E-005	0,000000000000000E+000	8,332225364974389E-005	0,0000000E+000	0,0000000E+000	0,0000000E+000	1,000000000000000E+000
3	1	0	0	0	0	0	4,383841976502881E+002	0,000000000000000E+000	7,117465138435364E-010	0,0000000E+000	3,4355867E+000	39	-8,332225364974389E-005	3	0,0000000E+000	2,865095211820347E-007	2,852267903057532E-007	5,444415621255624E+004	2,642229297672395E+004	0,000000000000000E+000	0,000000000000000E+000	8,332225364974389E-005	0,000000000000000E+000	8,332225364974389E-005	0,0000000E+000	0,0000000E+000	0,0000000E+000	1,000000000000000E+000
3	1	0	0	0	0	0	4,393841976250260E+002	0,000000000000000E+000	7,117465138435364E-010	0,0000000E+000	3,4355371E+000	39	-8,332225364974389E-005	3	0,0000000E+000	2,865095211820347E-007	2,852267903057532E-007	5,444415621255624E+004	2,642229297672395E+004	0,000000000000000E+000	0,000000000000000E+000	8,332225364974389E-005	0,000000000000000E+000	8,332225364974389E-005	0,0000000E+000	0,0000000E+000	0,0000000E+000	1,000000000000000E+000
3	1	0	1	0	0	0	4,403839975997689E+002	0,000000000000000E+000	7,117465138435364E-010	3,0000001E-002	3,4356134E+000	41	-8,332225364974389E-005	3	0,0000000E+000	2,865095211820347E-007	2,852267903057532E-007	5,444415621255624E+004	2,642229297672395E+004	0,000000000000000E+000	0,000000000000000E+000	8,332225364974389E-005	0,000000000000000E+000	8,332225364974389E-005	9,9958992E+001	0,0000000E+000	0,0000000E+000	1,000000000000000E+000
1	1	0	1	1	0	1	4,403843975997588E+002	3,282442481981383E-009	3,994188995824920E-009	3,0000001E-002	3,4375136E+000	41	3,282442481981383E-009	4	1,0155096E-004	1,128344063974154E-011	0,000000000000000E+000	0,000000000000000E+000	0,000000000000000E+000	0,000000000000000E+000	2,954198308412571E-002	0,000000000000000E+000	3,282442481981383E-009	3,282442481981383E-009	0,0000000E+000	0,0000000E+000	3,0000001E-002	2,000000000000000E+000
1	1	0	1	0	0	1	4,413843975744967E+002	8,334160352746645E-006	8,338154541742471E-006	3,0000001E-002	3,4416335E+000	41	8,337442795228626E-006	4	1,0325926E-004	2,869440859587610E-008	0,000000000000000E+000	7,285368680374710E+003	0,000000000000000E+000	9,999999747378752E-001	3,000297802782690E-002	0,000000000000000E+000	8,337442795228626E-006	8,337442795228626E-006	0,0000000E+000	0,0000000E+000	3,0000001E-002	2,000000000000000E+000
1	1	0	1	0	0	1	4,423843975492346E+002	8,334380832190316E-006	1,667253537393279E-005	3,0000001E-002	3,4420300E+000	41	1,667182362741894E-005	4	1,0327388E-004	5,738159706000865E-008	0,000000000000000E+000	1,328913622446286E+004	0,000000000000000E+000	1,999999949475750E+000	3,000377175384416E-002	0,000000000000000E+000	1,667182362741894E-005	1,667182362741894E-005	0,0000000E+000	0,0000000E+000	3,0000001E-002	2,000000000000000E+000
1	1	0	1	0	0	1	4,433843975239724E+002	8,334535018023518E-006	2,500707039195630E-005	3,0000001E-002	3,4421823E+000	41	2,500635864544246E-005	4	1,0328036E-004	8,607058599840715E-008	0,000000000000000E+000	1,928216588352824E+004	0,000000000000000E+000	2,999999924213625E+000	3,000432682285771E-002	0,000000000000000E+000	2,500635864544246E-005	2,500635864544246E-005	0,0000000E+000	0,0000000E+000	3,0000001E-002	2,000000000000000E+000
1	1	0	1	0	0	1	4,443843974987103E+002	8,334736178215180E-006	3,334180657017148E-005	3,0000001E-002	3,4423158E+000	41	3,334109482365764E-005	4	1,0328686E-004	1,147613801741932E-007	0,000000000000000E+000	2,499422473337740E+004	0,000000000000000E+000	3,999999898951501E+000	3,000505099956599E-002	0,000000000000000E+000	3,334109482365764E-005	3,334109482365764E-005	0,0000000E+000	0,0000000E+000	3,0000001E-002	2,000000000000000E+000
1	1	0	1	0	0	1	4,453843974734482E+002	8,334749494472311E-006	4,167655606464379E-005	3,0000001E-002	3,4423921E+000	41	4,167584431812995E-005	4	1,0328932E-004	1,434528560796638E-007	0,000000000000000E+000	3,075379620256451E+004	0,000000000000000E+000	4,999999873689376E+000	3,000509893809288E-002	0,000000000000000E+000	4,167584431812995E-005	4,167584431812995E-005	0,0000000E+000	0,0000000E+000	3,0000001E-002	2,000000000000000E+000
1	1	0	1	0	0	1	4,463843974481861E+002	8,334937930727998E-006	5,001149399537179E-005	3,0000001E-002	3,4425254E+000	41	5,001078224885794E-005	4	1,0329565E-004	1,721460915036831E-007	0,000000000000000E+000	3,592300682680414E+004	0,000000000000000E+000	5,999999848427251E+000	3,000577730863049E-002	0,000000000000000E+000	5,001078224885794E-005	5,001078224885794E-005	0,0000000E+000	0,0000000E+000	3,0000001E-002	2,000000000000000E+000
1	1	0	1	0	0	1	4,473843974229239E+002	8,335060381951432E-006	5,834655437732322E-005	3,0000001E-002	3,4425635E+000	41	5,834584263080938E-005	4	1,0329831E-004	2,008400664264682E-007	0,000000000000000E+000	4,159353779647739E+004	0,000000000000000E+000	6,999999823165126E+000	3,000621813304598E-002	0,000000000000000E+000	5,834584263080938E-005	5,834584263080938E-005	0,0000000E+000	0,0000000E+000	3,0000001E-002	2,000000000000000E+000
1	1	0	1	0	0	1	4,483843973976618E+002	8,335236393432650E-006	6,668179077075588E-005	3,0000001E-002	3,4426131E+000	41	6,668107902424203E-005	4	1,0330198E-004	2,295350606332052E-007	0,000000000000000E+000	4,707328904168031E+004	0,000000000000000E+000	7,999999797903001E+000	3,000685177439437E-002	0,000000000000000E+000	6,668107902424203E-005	6,668107902424203E-005	0,0000000E+000	0,0000000E+000	3,0000001E-002	2,000000000000000E+000
1	1	0	1	0	0	1	4,493843973723997E+002	8,335275193676353E-006	7,501706596443223E-005	3,0000001E-002	3,4426551E+000	41	7,501635421791839E-005	4	1,0330373E-004	2,582305381762368E-007	0,000000000000000E+000	5,252534293632623E+004	0,000000000000000E+000	8,999999772640876E+000	3,000699145527523E-002	0,000000000000000E+000	7,501635421791839E-005	7,501635421791839E-005	0,0000000E+000	0,0000000E+000	3,0000001E-002	2,000000000000000E+000
1	1	0	1	0	0	1	4,503839973471477E+002	8,331975434906781E-006	8,334904139933901E-005	3,0000001E-002	3,4427352E+000	41	8,334832965282517E-005	4	1,0330655E-004	2,869153232511982E-007	0,000000000000000E+000	5,746393483595213E+004	0,000000000000000E+000	9,999599747388856E+000	3,000711516947247E-002	0,000000000000000E+000	8,334832965282517E-005	8,334832965282517E-005	0,0000000E+000	0,0000000E+000	3,0000001E-002	2,000000000000000E+000
1	0	0	0	1	0	2	4,503845973471325E+002	-3,230189697610008E-009	8,334581120964139E-005	-3,0000001E-002	3,4388518E+000	41	-3,230189697610008E-009	5	-6,6648870E-005	2,869153232511982E-007	1,110814376367348E-011	5,746393483595213E+004	0,000000000000000E+000	0,000000000000000E+000	-1,938113867526879E-002	3,230189697610008E-009	0,000000000000000E+000	3,230189697610008E-009	0,0000000E+000	0,0000000E+000	-3,0000001E-002	2,000000000000000E+000
1	0	0	0	0	0	2	4,513845973218704E+002	-8,333035562704834E-006	7,501277564693656E-005	-3,0000001E-002	3,4304779E+000	41	-8,336265752402444E-006	5	-1,0291066E-004	2,869153232511982E-007	2,859740212813031E-008	5,746393483595213E+004	3,583788345110398E+003	9,999999747378752E-001	-2,999892878357409E-002	8,336265752402444E-006	0,000000000000000E+000	8,336265752402444E-006	0,0000000E+000	0,0000000E+000	-3,0000001E-002	2,000000000000000E+000
1	0	0	0	0	0	2	4,523845972966083E+002	-8,332762377233140E-006	6,668001326970342E-005	-3,0000001E-002	3,4295895E+000	41	-1,666902812963558E-005	5	-1,0288064E-004	2,869153232511982E-007	5,717535656611169E-008	5,746393483595213E+004	6,478774148546294E+003	1,999999949475750E+000	-2,999794531585115E-002	1,666902812963558E-005	0,000000000000000E+000	1,666902812963558E-005	0,0000000E+000	0,0000000E+000	-3,0000001E-002	2,000000000000000E+000
1	0	0	0	0	0	2	4,533845972713461E+002	-8,332912074919375E-006	5,834710119478405E-005	-3,0000001E-002	3,4291816E+000	41	-2,500194020455496E-005	5	-1,0287025E-004	2,869153232511982E-007	8,575042512597945E-008	5,746393483595213E+004	9,307609864591037E+003	2,999999924213625E+000	-2,999848422753520E-002	2,500194020455496E-005	0,000000000000000E+000	2,500194020455496E-005	0,0000000E+000	0,0000000E+000	-3,0000001E-002	2,000000000000000E+000
1	0	0	0	0	0	2	4,543845972460840E+002	-8,332823996846047E-006	5,001427719793800E-005	-3,0000001E-002	3,4288805E+000	41	-3,333476420140100E-005	5	-1,0286013E-004	2,869153232511982E-007	1,143226824479687E-007	5,746393483595213E+004	1,203495888349413E+004	3,999999898951501E+000	-2,999816714646321E-002	3,333476420140100E-005	0,000000000000000E+000	3,333476420140100E-005	0,0000000E+000	0,0000000E+000	-3,0000001E-002	2,000000000000000E+000
1	0	0	0	0	0	2	4,553845972208219E+002	-8,332765622167951E-006	4,168151157577005E-005	-3,0000001E-002	3,4285984E+000	41	-4,166752982356896E-005	5	-1,0285095E-004	2,869153232511982E-007	1,428923893604620E-007	5,746393483595213E+004	1,462955478846701E+004	4,999999873689376E+000	-2,999795699761676E-002	4,166752982356896E-005	0,000000000000000E+000	4,166752982356896E-005	0,0000000E+000	0,0000000E+000	-3,0000001E-002	2,000000000000000E+000
1	0	0	0	0	0	2	4,563845971955598E+002	-8,332949857020543E-006	3,334856171874950E-005	-3,0000001E-002	3,4283810E+000	41	-5,000047968058950E-005	5	-1,0284670E-004	2,869153232511982E-007	1,714609160424579E-007	5,746393483595213E+004	1,719071822337936E+004	5,999999848427251E+000	-2,999862024310285E-002	5,000047968058950E-005	0,000000000000000E+000	5,000047968058950E-005	0,0000000E+000	0,0000000E+000	-3,0000001E-002	2,000000000000000E+000
1	0	0	0	0	0	2	4,573845971702976E+002	-8,333079664243592E-006	2,501548205450591E-005	-3,0000001E-002	3,4281523E+000	41	-5,833355934483309E-005	5	-1,0284144E-004	2,869153232511982E-007	2,000279824492551E-007	5,746393483595213E+004	1,962714202507688E+004	6,999999823165126E+000	-2,999908754911763E-002	5,833355934483309E-005	0,000000000000000E+000	5,833355934483309E-005	0,0000000E+000	0,0000000E+000	-3,0000001E-002	2,000000000000000E+000
1	0	0	0	0	0	2	4,583845971450355E+002	-8,333063676228954E-006	1,668241837827696E-005	-3,0000001E-002	3,4280226E+000	41	-6,666662302106204E-005	5	-1,0283736E-004	2,869153232511982E-007	2,285939132507853E-007	5,746393483595213E+004	2,216226637399964E+004	7,999999797903001E+000	-2,999902999226347E-002	6,666662302106204E-005	0,000000000000000E+000	6,666662302106204E-005	0,0000000E+000	0,0000000E+000	-3,0000001E-002	2,000000000000000E+000
1	0	0	0	0	0	2	4,593845971197734E+002	-8,333145437658661E-006	8,349272940618297E-006	-3,0000001E-002	3,4278703E+000	41	-7,499976845872071E-005	5	-1,0283379E-004	2,869153232511982E-007	2,571588547820382E-007	5,746393483595213E+004	2,458659539391554E+004	8,999999772640876E+000	-2,999932433341786E-002	7,499976845872071E-005	0,000000000000000E+000	7,499976845872071E-005	0,0000000E+000	0,0000000E+000	-3,0000001E-002	2,000000000000000E+000
1	0	0	0	0	0	2	4,603841970945214E+002	-8,329617649006347E-006	1,965529161194960E-008	-3,0000001E-002	3,4277253E+000	41	-8,332938610772705E-005	5	-1,0282704E-004	2,869153232511982E-007	2,857104960625910E-007	5,746393483595213E+004	2,696133536661229E+004	9,999599747388856E+000	-2,999862374344607E-002	8,332938610772705E-005	0,000000000000000E+000	8,332938610772705E-005	0,0000000E+000	0,0000000E+000	-3,0000001E-002	2,000000000000000E+000
3	1	0	0	0	0	0	6,299857971350284E+002	0,000000000000000E+000	7,488970230850909E-010	0,0000000E+000	3,4414198E+000	39	-8,332938610772705E-005	5	0,0000000E+000	2,869153232511982E-007	2,857104960625910E-007	5,746393483595213E+004	2,696133536661229E+004	0,000000000000000E+000	0,000000000000000E+000	8,332938610772705E-005	0,000000000000000E+000	8,332938610772705E-005	0,0000000E+000	0,0000000E+000	0,0000000E+000	2,000000000000000E+000
3	1	0	0	0	0	0	6,309857971097663E+002	0,000000000000000E+000	7,488970230850909E-010	0,0000000E+000	3,4403639E+000	39	-8,332938610772705E-005	5	0,0000000E+000	2,869153232511982E-007	2,857104960625910E-007	5,746393483595213E+004	2,696133536661229E+004	0,000000000000000E+000	0,000000000000000E+000	8,332938610772705E-005	0,000000000000000E+000	8,332938610772705E-005	0,0000000E+000	0,0000000E+000	0,0000000E+000	2,000000000000000E+000
3	1	0	0	0	0	0	6,319857970845042E+002	0,000000000000000E+000	7,488970230850909E-010	0,0000000E+000	3,4401693E+000	39	-8,332938610772705E-005	5	0,0000000E+000	2,869153232511982E-007	2,857104960625910E-007	5,746393483595213E+004	2,696133536661229E+004	0,000000000000000E+000	0,000000000000000E+000	8,332938610772705E-005	0,000000000000000E+000	8,332938610772705E-005	0,0000000E+000	0,0000000E+000	0,0000000E+000	2,000000000000000E+000
3	1	0	0	0	0	0	6,329857970592420E+002	0,000000000000000E+000	7,488970230850909E-010	0,0000000E+000	3,4400740E+000	39	-8,332938610772705E-005	5	0,0000000E+000	2,869153232511982E-007	2,857104960625910E-007	5,746393483595213E+004	2,696133536661229E+004	0,000000000000000E+000	0,000000000000000E+000	8,332938610772705E-005	0,000000000000000E+000	8,332938610772705E-005	0,0000000E+000	0,0000000E+000	0,0000000E+000	2,000000000000000E+000
3	1	0	0	0	0	0	6,339857970339799E+002	0,000000000000000E+000	7,488970230850909E-010	0,0000000E+000	3,4399712E+000	39	-8,332938610772705E-005	5	0,0000000E+000	2,869153232511982E-007	2,857104960625910E-007	5,746393483595213E+004	2,696133536661229E+004	0,000000000000000E+000	0,000000000000000E+000	8,332938610772705E-005	0,000000000000000E+000	8,332938610772705E-005	0,0000000E+000	0,0000000E+000	0,0000000E+000	2,000000000000000E+000
3	1	0	0	0	0	0	6,349857970087178E+002	0,000000000000000E+000	7,488970230850909E-010	0,0000000E+000	3,4398797E+000	39	-8,332938610772705E-005	5	0,0000000E+000	2,869153232511982E-007	2,857104960625910E-007	5,746393483595213E+004	2,696133536661229E+004	0,000000000000000E+000	0,000000000000000E+000	8,332938610772705E-005	0,000000000000000E+000	8,332938610772705E-005	0,0000000E+000	0,0000000E+000	0,0000000E+000	2,000000000000000E+000
3	1	0	0	0	0	0	6,359857969834557E+002	0,000000000000000E+000	7,488970230850909E-010	0,0000000E+000	3,4398377E+000	39	-8,332938610772705E-005	5	0,0000000E+000	2,869153232511982E-007	2,857104960625910E-007	5,746393483595213E+004	2,696133536661229E+004	0,000000000000000E+000	0,000000000000000E+000	8,332938610772705E-005	0,000000000000000E+000	8,332938610772705E-005	0,0000000E+000	0,0000000E+000	0,0000000E+000	2,000000000000000E+000
3	1	0	0	0	0	0	6,369857969581935E+002	0,000000000000000E+000	7,488970230850909E-010	0,0000000E+000	3,4397957E+000	39	-8,332938610772705E-005	5	0,0000000E+000	2,869153232511982E-007	2,857104960625910E-007	5,746393483595213E+004	2,696133536661229E+004	0,000000000000000E+000	0,000000000000000E+000	8,332938610772705E-005	0,000000000000000E+000	8,332938610772705E-005	0,0000000E+000	0,0000000E+000	0,0000000E+000	2,000000000000000E+000
3	1	0	0	0	0	0	6,379857969329314E+002	0,000000000000000E+000	7,488970230850909E-010	0,0000000E+000	3,4397385E+000	39	-8,332938610772705E-005	5	0,0000000E+000	2,869153232511982E-007	2,857104960625910E-007	5,746393483595213E+004	2,696133536661229E+004	0,000000000000000E+000	0,000000000000000E+000	8,332938610772705E-005	0,000000000000000E+000	8,332938610772705E-005	0,0000000E+000	0,0000000E+000	0,0000000E+000	2,000000000000000E+000
3	1	0	0	0	0	0	6,389857969076693E+002	0,000000000000000E+000	7,488970230850909E-010	0,0000000E+000	3,4397004E+000	39	-8,332938610772705E-005	5	0,0000000E+000	2,869153232511982E-007	2,857104960625910E-007	5,746393483595213E+004	2,696133536661229E+004	0,000000000000000E+000	0,000000000000000E+000	8,332938610772705E-005	0,000000000000000E+000	8,332938610772705E-005	0,0000000E+000	0,0000000E+000	0,0000000E+000	2,000000000000000E+000
3	1	0	1	0	0	0	6,399855968824122E+002	0,000000000000000E+000	7,488970230850909E-010	3,0000001E-002	3,4397461E+000	41	-8,332938610772705E-005	5	0,0000000E+000	2,869153232511982E-007	2,857104960625910E-007	5,746393483595213E+004	2,696133536661229E+004	0,000000000000000E+000	0,000000000000000E+000	8,332938610772705E-005	0,000000000000000E+000	8,332938610772705E-005	9,9977272E+001	0,0000000E+000	0,0000000E+000	2,000000000000000E+000
1	1	0	1	1	0	1	6,399859968824021E+002	3,282972818447484E-009	4,031869841532575E-009	3,0000001E-002	3,4414074E+000	41	3,282972818447484E-009	6	1,0168242E-004	1,129804708959386E-011	0,000000000000000E+000	0,000000000000000E+000	0,000000000000000E+000	0,000000000000000E+000	2,954675611244120E-002	0,000000000000000E+000	3,282972818447484E-009	3,282972818447484E-009	0,0000000E+000	0,0000000E+000	3,0000001E-002	3,000000000000000E+000
1	1	0	1	0	0	1	6,409859968571400E+002	8,334865913933351E-006	8,338897783774883E-006	3,0000001E-002	3,4456937E+000	41	8,338148886751798E-006	6	1,0338983E-004	2,873069327802232E-008	0,000000000000000E+000	7,003105596944877E+003	0,000000000000000E+000	9,999999747378752E-001	3,000551804816320E-002	0,000000000000000E+000	8,338148886751798E-006	8,338148886751798E-006	0,0000000E+000	0,0000000E+000	3,0000001E-002	3,000000000000000E+000
1	1	0	1	0	0	1	6,419859968318779E+002	8,334856504263977E-006	1,667375428803886E-005	3,0000001E-002	3,4459643E+000	41	1,667300539101577E-005	6	1,0339783E-004	5,745231154068808E-008	0,000000000000000E+000	1,317187001165764E+004	0,000000000000000E+000	1,999999949475750E+000	3,000548417335261E-002	0,000000000000000E+000	1,667300539101577E-005	1,667300539101577E-005	0,0000000E+000	0,0000000E+000	3,0000001E-002	3,000000000000000E+000
1	1	0	1	0	0	1	6,429859968066157E+002	8,334963253906204E-006	2,500871754194506E-005	3,0000001E-002	3,4461398E+000	41	2,500796864492198E-005	6	1,0340442E-004	8,617576024544444E-008	0,000000000000000E+000	1,902401544205627E+004	0,000000000000000E+000	2,999999924213625E+000	3,000586847207433E-002	0,000000000000000E+000	2,500796864492198E-005	2,500796864492198E-005	0,0000000E+000	0,0000000E+000	3,0000001E-002	3,000000000000000E+000
1	1	0	1	0	0	1	6,439859967813536E+002	8,335160712194111E-006	3,334387825413918E-005	3,0000001E-002	3,4462390E+000	41	3,334312935711609E-005	6	1,0340985E-004	1,149007161180523E-007	0,000000000000000E+000	2,484403626973846E+004	0,000000000000000E+000	3,999999898951501E+000	3,000657932192875E-002	0,000000000000000E+000	3,334312935711609E-005	3,334312935711609E-005	0,0000000E+000	0,0000000E+000	3,0000001E-002	3,000000000000000E+000
1	1	0	1	0	0	1	6,449859967560915E+002	8,335006056663891E-006	4,167888431080307E-005	3,0000001E-002	3,4463570E+000	41	4,167813541377998E-005	6	1,0341147E-004	1,436261226847900E-007	0,000000000000000E+000	3,031400637200445E+004	0,000000000000000E+000	4,999999873689376E+000	3,000602256200589E-002	0,000000000000000E+000	4,167813541377998E-005	4,167813541377998E-005	0,0000000E+000	0,0000000E+000	3,0000001E-002	3,000000000000000E+000
1	1	0	1	0	0	1	6,459859967308294E+002	8,335067852607204E-006	5,001395216341027E-005	3,0000001E-002	3,4463532E+000	41	5,001320326638719E-005	6	1,0341212E-004	1,723517104266498E-007	0,000000000000000E+000	3,640445828417254E+004	0,000000000000000E+000	5,999999848427251E+000	3,000624502740744E-002	0,000000000000000E+000	5,001320326638719E-005	5,001320326638719E-005	0,0000000E+000	0,0000000E+000	3,0000001E-002	3,000000000000000E+000
1	1	0	1	0	0	1	6,469859967055672E+002	8,335283469201790E-006	5,834923563261206E-005	3,0000001E-002	3,4464943E+000	41	5,834848673558897E-005	6	1,0341903E-004	2,010792177330228E-007	0,000000000000000E+000	4,129324375292932E+004	0,000000000000000E+000	6,999999823165126E+000	3,000702124716756E-002	0,000000000000000E+000	5,834848673558897E-005	5,834848673558897E-005	0,0000000E+000	0,0000000E+000	3,0000001E-002	3,000000000000000E+000
1	1	0	1	0	0	1	6,479859966803051E+002	8,335487709070245E-006	6,668472334168230E-005	3,0000001E-002	3,4465210E+000	41	6,668397444465921E-005	6	1,0342237E-004	2,298076515324818E-007	0,000000000000000E+000	4,694583638086884E+004	0,000000000000000E+000	7,999999797903001E+000	3,000775651071257E-002	0,000000000000000E+000	6,668397444465921E-005	6,668397444465921E-005	0,0000000E+000	0,0000000E+000	3,0000001E-002	3,000000000000000E+000
1	1	0	1	0	0	1	6,489859966550430E+002	8,335652553476394E-006	7,502037589515869E-005	3,0000001E-002	3,4465325E+000	41	7,501962699813560E-005	6	1,0342475E-004	2,585367488656286E-007	0,000000000000000E+000	5,269624291721424E+004	0,000000000000000E+000	8,999999772640876E+000	3,000834995058970E-002	0,000000000000000E+000	7,501962699813560E-005	7,501962699813560E-005	0,0000000E+000	0,0000000E+000	3,0000001E-002	3,000000000000000E+000
1	1	0	1	0	0	1	6,499855966297910E+002	8,332215471296674E-006	8,335259136645537E-005	3,0000001E-002	3,4466355E+000	41	8,335184246943228E-005	6	1,0342657E-004	2,872548583751280E-007	0,000000000000000E+000	5,739559825779254E+004	0,000000000000000E+000	9,999599747388856E+000	3,000797964628864E-002	0,000000000000000E+000	8,335184246943228E-005	8,335184246943228E-005	0,0000000E+000	0,0000000E+000	3,0000001E-002	3,000000000000000E+000
1	0	0	0	1	0	2	6,499861966297758E+002	-3,230528905987740E-009	8,334936083754938E-005	-3,0000001E-002	3,4424024E+000	41	-3,230528905987740E-009	7	-6,6724679E-005	2,872548583751280E-007	1,112078033914177E-011	5,739559825779254E+004	0,000000000000000E+000	0,000000000000000E+000	-1,938317392558660E-002	3,230528905987740E-009	0,000000000000000E+000	3,230528905987740E-009	0,0000000E+000	0,0000000E+000	-3,0000001E-002	3,000000000000000E+000
1	0	0	0	0	0	2	6,509861966045137E+002	-8,332618118884664E-006	7,501674271866472E-005	-3,0000001E-002	3,4345193E+000	41	-8,335848647790651E-006	7	-1,0302674E-004	2,872548583751280E-007	2,862965845355197E-008	5,739559825779254E+004	3,806771714752072E+003	9,999999747378752E-001	-2,999742598578351E-002	8,335848647790651E-006	0,000000000000000E+000	8,335848647790651E-006	0,0000000E+000	0,0000000E+000	-3,0000001E-002	3,000000000000000E+000
1	0	0	0	0	0	2	6,519861965792516E+002	-8,332634609813491E-006	6,668410810885123E-005	-3,0000001E-002	3,4338481E+000	41	-1,666848325760414E-005	7	-1,0300681E-004	2,872548583751280E-007	5,724266033162367E-008	5,739559825779254E+004	7,014846277897587E+003	1,999999949475750E+000	-2,999748535312879E-002	1,666848325760414E-005	0,000000000000000E+000	1,666848325760414E-005	0,0000000E+000	0,0000000E+000	-3,0000001E-002	3,000000000000000E+000
1	0	0	0	0	0	2	6,529861965539894E+002	-8,332582915615704E-006	5,835152519323552E-005	-3,0000001E-002	3,4333677E+000	41	-2,500106617321985E-005	7	-1,0299175E-004	2,872548583751280E-007	8,585148161487365E-008	5,739559825779254E+004	9,962090533502997E+003	2,999999924213625E+000	-2,999729925401205E-002	2,500106617321985E-005	0,000000000000000E+000	2,500106617321985E-005	0,0000000E+000	0,0000000E+000	-3,0000001E-002	3,000000000000000E+000
1	0	0	0	0	0	2	6,539861965287273E+002	-8,332548056625658E-006	5,001897713660987E-005	-3,0000001E-002	3,4331086E+000	41	-3,333361422984551E-005	7	-1,0298355E-004	2,872548583751280E-007	1,144580237429429E-007	5,739559825779254E+004	1,291194996011679E+004	3,999999898951501E+000	-2,999717376164472E-002	3,333361422984551E-005	0,000000000000000E+000	3,333361422984551E-005	0,0000000E+000	0,0000000E+000	-3,0000001E-002	3,000000000000000E+000
1	0	0	0	0	0	2	6,549861965034652E+002	-8,332470007137293E-006	4,168650712947258E-005	-3,0000001E-002	3,4328265E+000	41	-4,166608423698280E-005	7	-1,0297413E-004	2,872548583751280E-007	1,430619477523196E-007	5,739559825779254E+004	1,566419693273205E+004	4,999999873689376E+000	-2,999689278347950E-002	4,166608423698280E-005	0,000000000000000E+000	4,166608423698280E-005	0,0000000E+000	0,0000000E+000	-3,0000001E-002	3,000000000000000E+000
1	0	0	0	0	0	2	6,559861964782031E+002	-8,332499608914885E-006	3,335400752055769E-005	-3,0000001E-002	3,4326091E+000	41	-4,999858384589769E-005	7	-1,0296797E-004	2,872548583751280E-007	1,716641615795455E-007	5,739559825779254E+004	1,837942683779001E+004	5,999999848427251E+000	-2,999699934988153E-002	4,999858384589769E-005	0,000000000000000E+000	4,999858384589769E-005	0,0000000E+000	0,0000000E+000	-3,0000001E-002	3,000000000000000E+000
1	0	0	0	0	0	2	6,569861964529409E+002	-8,332263361352186E-006	2,502174415920551E-005	-3,0000001E-002	3,4324644E+000	41	-5,833084720724987E-005	7	-1,0296072E-004	2,872548583751280E-007	2,002643586154427E-007	5,739559825779254E+004	2,113010821565447E+004	6,999999823165126E+000	-2,999614885863432E-002	5,833084720724987E-005	0,000000000000000E+000	5,833084720724987E-005	0,0000000E+000	0,0000000E+000	-3,0000001E-002	3,000000000000000E+000
1	0	0	0	0	0	2	6,579861964276788E+002	-8,332149460704790E-006	1,668959469850072E-005	-3,0000001E-002	3,4322736E+000	41	-6,666299666795466E-005	7	-1,0295359E-004	2,872548583751280E-007	2,288625754600388E-007	5,739559825779254E+004	2,369365498846598E+004	7,999999797903001E+000	-2,999573881629334E-002	6,666299666795466E-005	0,000000000000000E+000	6,666299666795466E-005	0,0000000E+000	0,0000000E+000	-3,0000001E-002	3,000000000000000E+000
1	0	0	0	0	0	2	6,589861964024167E+002	-8,332236246205867E-006	8,357358452294849E-006	-3,0000001E-002	3,4321744E+000	41	-7,499523291416053E-005	7	-1,0295168E-004	2,872548583751280E-007	2,574602637672919E-007	5,739559825779254E+004	2,639665492002291E+004	8,999999772640876E+000	-2,999605124410511E-002	7,499523291416053E-005	0,000000000000000E+000	7,499523291416053E-005	0,0000000E+000	0,0000000E+000	-3,0000001E-002	3,000000000000000E+000
1	0	0	0	0	0	2	6,599857963771647E+002	-8,328865192830562E-006	2,849325946428710E-008	-3,0000001E-002	3,4320145E+000	41	-8,332409810699110E-005	7	-1,0294641E-004	2,872548583751280E-007	2,860450495888869E-007	5,739559825779254E+004	2,887656077006111E+004	9,999599747388856E+000	-2,999591381717431E-002	8,332409810699110E-005	0,000000000000000E+000	8,332409810699110E-005	9,9966713E+001	0,0000000E+000	-3,0000001E-002	3,000000000000000E+000