EC-Lab ASCII FILE
Nb header lines : 63                          

Chronopotentiometry

Run on channel : 1 (SN 15265)
User : 
Electrode connection : standard
Potential control : Ewe
Ewe ctrl range : min = 3,00 V, max = 4,50 V
Ewe,I filtering : 50 kHz
Safety Limits :
	Do not start on E overload
Channel : Floating
Acquisition started on : 01/10/2024 11:02:29.886
Technique started on : 01/10/2024 11:02:40.886
Loaded Setting File :  NONE
Saved on :
	File : ***.mpr
	Directory : C:\Users\***\
	Host : 169.254.189.50
Device : SP-300 (SN 1854)
Address : 169.254.189.65
EC-Lab for windows v11.50 (software)
Internet server v11.50 (firmware)
Command interpretor v11.50 (firmware)
Electrode material : 
Initial state : 
Electrolyte : 
Comments : 
Cable : standard
Electrode surface area : 0,000 cm²
Characteristic mass : 0,001 g
Equivalent Weight : 0,000 g/eq.
Density : 0,000 g/cm3
Volume (V) : 0,001 cm³
Record Power
Record EIS quality indicators
Cycle Definition : Charge/Discharge alternance
Is                  20,000              
unit Is             µA                  
vs.                 <None>              
ts (h:m:s)          0:00:10,0000        
EM (V)              4,000               
dQM                 55,556              
unit dQM            nA.h                
record              <Ewe>               
dEs (mV)            0,00                
dts (s)             1,0000              
E range min (V)     3,000               
E range max (V)     4,500               
I Range             100 µA              
Bandwidth           8                   
goto Ns'            0                   
nc cycles           0                   

Number of loops : 4
Loop 0 from point number 0 to 10
Loop 1 from point number 11 to 21
Loop 2 from point number 22 to 32
Loop 3 from point number 33 to 43

mode	ox/red	error	control changes	Ns changes	counter inc.	Ns	time/s	control/mA	<Ewe/V>	I/mA	dQ/C	(Q-Qo)/C	half cycle	Q charge/discharge/mA.h	I Range	Energy charge/W.h	Energy discharge/W.h	Capacitance charge/µF	Capacitance discharge/µF	step time/s	Q discharge/mA.h	Q charge/mA.h	Capacity/mA.h	Efficiency/%	cycle number	P/W	
1	1	0	1	0	0	0	1,099979972212168E+001	2,0000001E-002	3,4244580E+000	2,0003509E-002	1,8956864E-005	1,8956864E-005	0	5,265795205719769E-006	41	1,803249551714959E-008	0,000000000000000E+000	0,000000000000000E+000	0,000000000000000E+000	1,099979972212168E+001	0,000000000000000E+000	5,265795205719769E-006	5,265795205719769E-006	0,0000000E+000	0,000000000000000E+000	6,8501176E-005
1	1	0	1	0	0	0	1,199979969685955E+001	2,0000001E-002	3,4252174E+000	2,0001600E-002	3,8963404E-005	3,8963404E-005	0	1,082316750143137E-005	41	3,706770404820544E-008	0,000000000000000E+000	5,131063016581633E+004	0,000000000000000E+000	1,199979969685955E+001	0,000000000000000E+000	1,082316750143137E-005	1,082316750143137E-005	0,0000000E+000	0,000000000000000E+000	6,8509828E-005
1	1	0	1	0	0	0	1,299979967159743E+001	2,0000001E-002	3,4254782E+000	2,0008089E-002	5,8970341E-005	5,8970341E-005	0	1,638065016766389E-005	41	5,610473942441721E-008	0,000000000000000E+000	5,780311649333956E+004	0,000000000000000E+000	1,299979967159743E+001	0,000000000000000E+000	1,638065016766389E-005	1,638065016766389E-005	0,0000000E+000	0,000000000000000E+000	6,8537272E-005
1	1	0	1	0	0	0	1,399979964633530E+001	2,0000001E-002	3,4256444E+000	2,0003507E-002	7,8977682E-005	7,8977682E-005	0	2,193824540823698E-005	41	7,514308258857303E-008	0,000000000000000E+000	6,657082268639469E+004	0,000000000000000E+000	1,399979964633530E+001	0,000000000000000E+000	2,193824540823698E-005	2,193824540823698E-005	0,0000000E+000	0,000000000000000E+000	6,8524903E-005
1	1	0	1	0	0	0	1,499979962107318E+001	2,0000001E-002	3,4257700E+000	2,0008471E-002	9,8985591E-005	9,8985591E-005	0	2,749599740664578E-005	41	9,418266410364081E-008	0,000000000000000E+000	7,544533143086726E+004	0,000000000000000E+000	1,499979962107318E+001	0,000000000000000E+000	2,749599740664578E-005	2,749599740664578E-005	0,0000000E+000	0,000000000000000E+000	6,8544417E-005
1	1	0	1	0	0	0	1,599979959581106E+001	2,0000001E-002	3,4258800E+000	2,0008853E-002	1,1899516E-004	1,1899516E-004	0	3,305421098352720E-005	41	1,132244351585977E-007	0,000000000000000E+000	8,368576016803949E+004	0,000000000000000E+000	1,599979959581106E+001	0,000000000000000E+000	3,305421098352720E-005	3,305421098352720E-005	0,0000000E+000	0,000000000000000E+000	6,8547924E-005
1	1	0	1	0	0	0	1,699979957054893E+001	2,0000001E-002	3,4259732E+000	2,0012287E-002	1,3900493E-004	1,3900493E-004	0	3,861248220410198E-005	41	1,322669182379360E-007	0,000000000000000E+000	9,174334521021834E+004	0,000000000000000E+000	1,699979957054893E+001	0,000000000000000E+000	3,861248220410198E-005	3,861248220410198E-005	0,0000000E+000	0,000000000000000E+000	6,8561560E-005
1	1	0	1	0	0	0	1,799979954528681E+001	2,0000001E-002	3,4260583E+000	2,0013813E-002	1,5901549E-004	1,5901549E-004	0	4,417096669692546E-005	41	1,513106222474570E-007	0,000000000000000E+000	9,936818597777303E+004	0,000000000000000E+000	1,799979954528681E+001	0,000000000000000E+000	4,417096669692546E-005	4,417096669692546E-005	0,0000000E+000	0,000000000000000E+000	6,8568486E-005
1	1	0	1	0	0	0	1,899979952002468E+001	2,0000001E-002	3,4261358E+000	2,0010760E-002	1,7902584E-004	1,7902584E-004	0	4,972940051866074E-005	41	1,703545630744929E-007	0,000000000000000E+000	1,067058127962022E+005	0,000000000000000E+000	1,899979952002468E+001	0,000000000000000E+000	4,972940051866074E-005	4,972940051866074E-005	0,0000000E+000	0,000000000000000E+000	6,8559581E-005
1	1	0	1	0	0	0	1,999979949476256E+001	2,0000001E-002	3,4262049E+000	2,0008471E-002	1,9903638E-004	1,9903638E-004	0	5,528788208826962E-005	41	1,893990682614062E-007	0,000000000000000E+000	1,139373639934062E+005	0,000000000000000E+000	1,999979949476256E+001	0,000000000000000E+000	5,528788208826962E-005	5,528788208826962E-005	0,0000000E+000	0,000000000000000E+000	6,8553119E-005
1	1	0	1	0	0	0	2,005219949343882E+001	2,0000001E-002	3,4262395E+000	2,0014578E-002	2,0008491E-004	2,0008491E-004	0	5,557913920200533E-005	41	1,903969830689648E-007	0,000000000000000E+000	1,123148957625134E+005	0,000000000000000E+000	2,005219949343882E+001	0,000000000000000E+000	5,557913920200533E-005	5,557913920200533E-005	0,0000000E+000	0,000000000000000E+000	6,8574736E-005
1	1	0	0	0	0	0	2,114203990436654E+002	2,0000001E-002	3,4350116E+000	2,0008089E-002	1,8957775E-005	1,8957775E-005	1	-5,031309066433460E-005	41	1,903969830689648E-007	0,000000000000000E+000	1,123148957625134E+005	0,000000000000000E+000	0,000000000000000E+000	5,031309066433460E-005	0,000000000000000E+000	0,000000000000000E+000	9,0525131E+001	0,000000000000000E+000	6,8728019E-005
1	1	0	0	0	0	0	2,124203990184033E+002	2,0000001E-002	3,4355819E+000	2,0003125E-002	3,8964150E-005	3,8964150E-005	2	5,557326747518447E-006	41	1,909265012948568E-008	0,000000000000000E+000	0,000000000000000E+000	0,000000000000000E+000	0,000000000000000E+000	0,000000000000000E+000	5,557326747518447E-006	5,557326747518447E-006	0,0000000E+000	1,000000000000000E+000	6,8722373E-005
1	1	0	0	0	0	0	2,134203989931411E+002	2,0000001E-002	3,4356794E+000	2,0011524E-002	5,8971349E-005	5,8971349E-005	2	1,111488148725281E-005	41	3,818662856259407E-008	0,000000000000000E+000	4,103400752406785E+005	0,000000000000000E+000	9,999999747378752E-001	0,000000000000000E+000	1,111488148725281E-005	1,111488148725281E-005	0,0000000E+000	1,000000000000000E+000	6,8753179E-005
1	1	0	0	0	0	0	2,144203989678790E+002	2,0000001E-002	3,4357100E+000	2,0014195E-002	7,8979632E-005	7,8979632E-005	2	1,667273838549025E-005	41	5,728181124158563E-008	0,000000000000000E+000	4,688080444774209E+005	0,000000000000000E+000	1,999999949475750E+000	0,000000000000000E+000	1,667273838549025E-005	1,667273838549025E-005	0,0000000E+000	1,000000000000000E+000	6,8762965E-005
1	1	0	0	0	0	0	2,154203989426169E+002	2,0000001E-002	3,4357147E+000	2,0007707E-002	9,8987708E-005	9,8987708E-005	2	2,223053723097675E-005	41	7,637682252076059E-008	0,000000000000000E+000	6,026389092066876E+005	0,000000000000000E+000	2,999999924213625E+000	0,000000000000000E+000	2,223053723097675E-005	2,223053723097675E-005	0,0000000E+000	1,000000000000000E+000	6,8740774E-005
1	1	0	0	0	0	0	2,164203989173548E+002	2,0000001E-002	3,4357123E+000	2,0008471E-002	1,1899621E-004	1,1899621E-004	2	2,778845572026653E-005	41	9,547223024015031E-008	0,000000000000000E+000	7,670779369886882E+005	0,000000000000000E+000	3,999999898951501E+000	0,000000000000000E+000	2,778845572026653E-005	2,778845572026653E-005	0,0000000E+000	1,000000000000000E+000	6,8743349E-005
1	1	0	0	0	0	0	2,174203988920926E+002	2,0000001E-002	3,4357009E+000	2,0009235E-002	1,3900553E-004	1,3900553E-004	2	3,334659870558729E-005	41	1,145683451263160E-007	0,000000000000000E+000	1,009051664156438E+006	0,000000000000000E+000	4,999999873689376E+000	0,000000000000000E+000	3,334659870558729E-005	3,334659870558729E-005	0,0000000E+000	1,000000000000000E+000	6,8745743E-005
1	1	0	0	0	0	0	2,184203988668305E+002	2,0000001E-002	3,4356878E+000	2,0014195E-002	1,5901565E-004	1,5901565E-004	2	3,890496344015831E-005	41	1,336651578975975E-007	0,000000000000000E+000	1,323074949542511E+006	0,000000000000000E+000	5,999999848427251E+000	0,000000000000000E+000	3,890496344015831E-005	3,890496344015831E-005	0,0000000E+000	1,000000000000000E+000	6,8762522E-005
1	1	0	0	0	0	0	2,194203988415684E+002	2,0000001E-002	3,4356775E+000	2,0009235E-002	1,7902558E-004	1,7902558E-004	2	4,446327722155386E-005	41	1,527617331445241E-007	0,000000000000000E+000	1,674246896290524E+006	0,000000000000000E+000	6,999999823165126E+000	0,000000000000000E+000	4,446327722155386E-005	4,446327722155386E-005	0,0000000E+000	1,000000000000000E+000	6,8745278E-005
1	1	0	0	0	0	0	2,204203988163063E+002	2,0000001E-002	3,4356639E+000	2,0008471E-002	1,9903589E-004	1,9903589E-004	2	5,002169746553733E-005	41	1,718585939332858E-007	0,000000000000000E+000	2,195646339416788E+006	0,000000000000000E+000	7,999999797903001E+000	0,000000000000000E+000	5,002169746553733E-005	5,002169746553733E-005	0,0000000E+000	1,000000000000000E+000	6,8742382E-005
1	1	0	0	0	0	0	2,204727988149825E+002	2,0000001E-002	3,4356580E+000	2,0011906E-002	2,0008444E-004	2,0008444E-004	2	5,031296346305560E-005	41	1,728592797125720E-007	0,000000000000000E+000	2,381505674162422E+006	0,000000000000000E+000	8,052399796579266E+000	0,000000000000000E+000	5,031296346305560E-005	5,031296346305560E-005	0,0000000E+000	1,000000000000000E+000	6,8754060E-005
1	1	0	0	0	0	0	4,112309983362356E+002	2,0000001E-002	3,4403837E+000	2,0003125E-002	1,8955914E-005	1,8955914E-005	3	-5,031348005423529E-005	41	1,728592797125720E-007	0,000000000000000E+000	2,381505674162422E+006	0,000000000000000E+000	0,000000000000000E+000	5,031348005423529E-005	0,000000000000000E+000	0,000000000000000E+000	1,0000103E+002	1,000000000000000E+000	6,8818423E-005
1	1	0	0	0	0	0	4,122309983109735E+002	2,0000001E-002	3,4409189E+000	2,0005798E-002	3,8960832E-005	3,8960832E-005	4	5,556921716469029E-006	41	1,912091695350713E-008	0,000000000000000E+000	0,000000000000000E+000	0,000000000000000E+000	0,000000000000000E+000	0,000000000000000E+000	5,556921716469029E-006	5,556921716469029E-006	0,0000000E+000	2,000000000000000E+000	6,8838330E-005
1	1	0	0	0	0	0	4,132309982857114E+002	2,0000001E-002	3,4410026E+000	2,0003509E-002	5,8966561E-005	5,8966561E-005	4	1,111406887809022E-005	41	3,824307437636933E-008	0,000000000000000E+000	4,781106005297365E+005	0,000000000000000E+000	9,999999747378752E-001	0,000000000000000E+000	1,111406887809022E-005	1,111406887809022E-005	0,0000000E+000	2,000000000000000E+000	6,8832123E-005
1	1	0	0	0	0	0	4,142309982604493E+002	2,0000001E-002	3,4410186E+000	2,0005418E-002	7,8972676E-005	7,8972676E-005	4	1,667132355935044E-005	41	5,736568916528700E-008	0,000000000000000E+000	6,022214275717704E+005	0,000000000000000E+000	1,999999949475750E+000	0,000000000000000E+000	1,667132355935044E-005	1,667132355935044E-005	0,0000000E+000	2,000000000000000E+000	6,8839014E-005
1	1	0	0	0	0	0	4,152309982351871E+002	2,0000001E-002	3,4410198E+000	2,0006943E-002	9,8979850E-005	9,8979850E-005	4	2,222887138380773E-005	41	7,648932247949291E-008	0,000000000000000E+000	7,934863332816194E+005	0,000000000000000E+000	2,999999924213625E+000	0,000000000000000E+000	2,222887138380773E-005	2,222887138380773E-005	0,0000000E+000	2,000000000000000E+000	6,8844289E-005
1	1	0	0	0	0	0	4,162309982099250E+002	2,0000001E-002	3,4410145E+000	2,0008471E-002	1,1898753E-004	1,1898753E-004	4	2,778656019705037E-005	41	9,561341346745109E-008	0,000000000000000E+000	1,046291795737220E+006	0,000000000000000E+000	3,999999898951501E+000	0,000000000000000E+000	2,778656019705037E-005	2,778656019705037E-005	0,0000000E+000	2,000000000000000E+000	6,8849440E-005
1	1	0	0	0	0	0	4,172309981846629E+002	2,0000001E-002	3,4410059E+000	2,0005036E-002	1,3899541E-004	1,3899541E-004	4	3,334430384397920E-005	41	1,147376445279766E-007	0,000000000000000E+000	1,379403093600171E+006	0,000000000000000E+000	4,999999873689376E+000	0,000000000000000E+000	3,334430384397920E-005	3,334430384397920E-005	0,0000000E+000	2,000000000000000E+000	6,8837449E-005
1	1	0	0	0	0	0	4,182309981594008E+002	2,0000001E-002	3,4409876E+000	2,0012287E-002	1,5900357E-004	1,5900357E-004	4	3,890212462832116E-005	41	1,338620378321050E-007	0,000000000000000E+000	2,039591711713325E+006	0,000000000000000E+000	5,999999848427251E+000	0,000000000000000E+000	3,890212462832116E-005	3,890212462832116E-005	0,0000000E+000	2,000000000000000E+000	6,8862035E-005
1	1	0	0	0	0	0	4,192309981341386E+002	2,0000001E-002	3,4409685E+000	2,0007325E-002	1,7901245E-004	1,7901245E-004	4	4,446014881258209E-005	41	1,529870205831275E-007	0,000000000000000E+000	3,227527730859375E+006	0,000000000000000E+000	6,999999823165126E+000	0,000000000000000E+000	4,446014881258209E-005	4,446014881258209E-005	0,0000000E+000	2,000000000000000E+000	6,8844580E-005
1	1	0	0	0	0	0	4,202309981088765E+002	2,0000001E-002	3,4409544E+000	2,0014578E-002	1,9902195E-004	1,9902195E-004	4	5,001834315372010E-005	41	1,721125093300299E-007	0,000000000000000E+000	5,068803304341443E+006	0,000000000000000E+000	7,999999797903001E+000	0,000000000000000E+000	5,001834315372010E-005	5,001834315372010E-005	0,0000000E+000	2,000000000000000E+000	6,8869253E-005
1	1	0	0	0	0	0	4,202833981075528E+002	2,0000001E-002	3,4409490E+000	2,0003889E-002	2,0007047E-004	2,0007047E-004	4	5,030959746769319E-005	41	1,731147083683365E-007	0,000000000000000E+000	6,028964168489583E+006	0,000000000000000E+000	8,052399796579266E+000	0,000000000000000E+000	5,030959746769319E-005	5,030959746769319E-005	0,0000000E+000	2,000000000000000E+000	6,8832363E-005
1	1	0	0	0	0	0	6,108325976188789E+002	2,0000001E-002	3,4444175E+000	2,0006562E-002	1,8957771E-005	1,8957771E-005	5	-5,030908157935159E-005	41	1,731147083683365E-007	0,000000000000000E+000	6,028964168489583E+006	0,000000000000000E+000	0,000000000000000E+000	5,030908157935159E-005	0,000000000000000E+000	0,000000000000000E+000	9,9998978E+001	2,000000000000000E+000	6,8910951E-005
1	1	0	0	0	0	0	6,118325975936168E+002	2,0000001E-002	3,4449229E+000	2,0011142E-002	3,8964939E-005	3,8964939E-005	6	5,557546594180167E-006	41	1,914532003974266E-008	0,000000000000000E+000	0,000000000000000E+000	0,000000000000000E+000	0,000000000000000E+000	0,000000000000000E+000	5,557546594180167E-006	5,557546594180167E-006	0,0000000E+000	3,000000000000000E+000	6,8936839E-005
1	1	0	0	0	0	0	6,128325975683547E+002	2,0000001E-002	3,4450033E+000	2,0009996E-002	5,8972775E-005	5,8972775E-005	6	1,111527889718612E-005	41	3,829172543918890E-008	0,000000000000000E+000	4,980269776335311E+005	0,000000000000000E+000	9,999999747378752E-001	0,000000000000000E+000	1,111527889718612E-005	1,111527889718612E-005	0,0000000E+000	3,000000000000000E+000	6,8934503E-005
1	1	0	0	0	0	0	6,138325975430926E+002	2,0000001E-002	3,4450278E+000	2,0009235E-002	7,8981080E-005	7,8981080E-005	6	1,667314025014639E-005	41	5,743871641744811E-008	0,000000000000000E+000	5,721726996306818E+005	0,000000000000000E+000	1,999999949475750E+000	0,000000000000000E+000	1,667314025014639E-005	1,667314025014639E-005	0,0000000E+000	3,000000000000000E+000	6,8932372E-005
1	1	0	0	0	0	0	6,148325975178304E+002	2,0000001E-002	3,4450214E+000	2,0011524E-002	9,8990029E-005	9,8990029E-005	6	2,223118225133253E-005	41	7,658628781971479E-008	0,000000000000000E+000	8,127835639452179E+005	0,000000000000000E+000	2,999999924213625E+000	0,000000000000000E+000	2,223118225133253E-005	2,223118225133253E-005	0,0000000E+000	3,000000000000000E+000	6,8940128E-005
1	1	0	0	0	0	0	6,158325974925683E+002	2,0000001E-002	3,4450095E+000	2,0004654E-002	1,1899862E-004	1,1899862E-004	6	2,778912462283754E-005	41	9,573345179235371E-008	0,000000000000000E+000	1,155927635326274E+006	0,000000000000000E+000	3,999999898951501E+000	0,000000000000000E+000	2,778912462283754E-005	2,778912462283754E-005	0,0000000E+000	3,000000000000000E+000	6,8916226E-005
1	1	0	0	0	0	0	6,168325974673062E+002	2,0000001E-002	3,4449966E+000	2,0006943E-002	1,3900801E-004	1,3900801E-004	6	3,334729067691498E-005	41	1,148813101035270E-007	0,000000000000000E+000	1,629537957382686E+006	0,000000000000000E+000	4,999999873689376E+000	0,000000000000000E+000	3,334729067691498E-005	3,334729067691498E-005	0,0000000E+000	3,000000000000000E+000	6,8923851E-005
1	1	0	0	0	0	0	6,178325974420441E+002	2,0000001E-002	3,4449759E+000	2,0005800E-002	1,5901729E-004	1,5901729E-004	6	3,890542140106360E-005	41	1,340289417227202E-007	0,000000000000000E+000	2,646181047635135E+006	0,000000000000000E+000	5,999999848427251E+000	0,000000000000000E+000	3,890542140106360E-005	3,890542140106360E-005	0,0000000E+000	3,000000000000000E+000	6,8919500E-005
1	1	0	0	0	0	0	6,188325974167819E+002	2,0000001E-002	3,4449573E+000	2,0011524E-002	1,7902674E-004	1,7902674E-004	6	4,446360444184393E-005	41	1,531766370816964E-007	0,000000000000000E+000	4,662346849121095E+006	0,000000000000000E+000	6,999999823165126E+000	0,000000000000000E+000	4,446360444184393E-005	4,446360444184393E-005	0,0000000E+000	3,000000000000000E+000	6,8938847E-005
1	1	0	0	0	0	0	6,198325973915198E+002	2,0000001E-002	3,4449468E+000	2,0014577E-002	1,9903677E-004	1,9903677E-004	6	5,002194542375704E-005	41	1,723248311394054E-007	0,000000000000000E+000	7,553060848031250E+006	0,000000000000000E+000	7,999999797903001E+000	0,000000000000000E+000	5,002194542375704E-005	5,002194542375704E-005	0,0000000E+000	3,000000000000000E+000	6,8949150E-005
1	1	0	0	0	0	0	6,198849973901961E+002	2,0000001E-002	3,4449370E+000	2,0008853E-002	2,0008533E-004	2,0008533E-004	6	5,031320877083474E-005	41	1,733282195672364E-007	0,000000000000000E+000	1,287633922171610E+007	0,000000000000000E+000	8,052399796579266E+000	0,000000000000000E+000	5,031320877083474E-005	5,031320877083474E-005	0,0000000E+000	3,000000000000000E+000	6,8929236E-005