EC-Lab ASCII FILE
Nb header lines : 49                          

Open Circuit Voltage

Run on channel : 13 (SN 15939)
User : 
CE vs. WE compliance from -10 V to 10 V
Electrode connection : standard
Ewe ctrl range : min = -0.50 V, max = 4.00 V
Safety Limits :
	Do not start on E overload
Acquisition started on : 01/16/2020 14:13:34
Saved on :
	File : MB440_C-TiO2-Al_LMO-Ti_Al-bot-SS-top_40m-LiTFSI_20m-EmiTFSI_GCPL_25°C_1C_200116_01_OCV_C13.mpr
	Directory : C:\Users\lab131\Desktop\VMP3 Sync\Maximilian\06 Cations\Full cells\MB440_C-TiO2-Al_LMO-Ti_Al-bot-SS-top_40m-LiTFSI_20m-EmiTFSI_GCPL_1C_200116\
	Host : 192.109.209.127
Device : VMP3 (SN 1083)
Address : 192.109.209.128
EC-Lab for windows v11.30 (software)
Internet server v11.30 (firmware)
Command interpretor v11.30 (firmware)
Electrode material : LMO(Ti) vs C-TiO2 (Al)
Initial state : 
Electrolyte : 40/20 LiTFSI/EmiTFSI
Comments : 25°C
Comments : Al bot, SS top, 
Comments : 1 C
Comments : 1.25 times oversized cathode
Mass of active material : 0.001 mg
 at x = 0.000
Molecular weight of active material (at x = 0) : 0.001 g/mol
Atomic weight of intercalated ion : 0.001 g/mol
Acquisition started at : xo = 0.000
Number of e- transfered per intercalated ion : 1
for DX = 1, DQ = 26.802 mA.h
Battery capacity : 168.128 µA.h
Electrode surface area : 1.130 cm²
Characteristic mass : 1.136 mg
Average data every 50 points
Cycle Definition : Charge/Discharge alternance
tR (h:m:s)          10:00:0.0000        
dER/dt (mV/h)       0.0                 
dER (mV)            0.00                
dtR (s)             60.0000             
E range min (V)     -0.500              
E range max (V)     4.000               

mode	error	time/s	Ewe/V	
3	0	0.000000000000000E+000	2.5594452E-001
3	0	5.999999848427251E+001	2.6079172E-001
3	0	1.199999969685450E+002	2.6553771E-001
3	0	1.799999954528175E+002	2.7017716E-001
3	0	2.399999939370900E+002	2.7475053E-001
3	0	2.999999924213625E+002	2.7922800E-001
3	0	3.599999909056351E+002	2.8365737E-001
3	0	4.199999893899076E+002	2.8792709E-001
3	0	4.799999878741801E+002	2.9216662E-001
3	0	5.399999863584526E+002	2.9634047E-001
3	0	5.999999848427251E+002	3.0040851E-001
3	0	6.599999833269976E+002	3.0442157E-001
3	0	7.199999818112701E+002	3.0838344E-001
3	0	7.799999802955426E+002	3.1224638E-001
3	0	8.399999787798151E+002	3.1602493E-001
3	0	8.999999772640876E+002	3.1979659E-001
3	0	9.599999757483602E+002	3.2345366E-001
3	0	1.019999974232633E+003	3.2701567E-001
3	0	1.079999972716905E+003	3.3053944E-001
3	0	1.139999971201178E+003	3.3401319E-001
3	0	1.199999969685450E+003	3.3742926E-001
3	0	1.259999968169723E+003	3.4082013E-001
3	0	1.319999966653995E+003	3.4414417E-001
3	0	1.379999965138268E+003	3.4746972E-001
3	0	1.439999963622540E+003	3.5067573E-001
3	0	1.499999962106813E+003	3.5386875E-001
3	0	1.559999960591085E+003	3.5704041E-001
3	0	1.619999959075358E+003	3.6012572E-001
3	0	1.679999957559630E+003	3.6320493E-001
3	0	1.739999956043903E+003	3.6620238E-001
3	0	1.799999954528175E+003	3.6915097E-001
3	0	1.859999953012448E+003	3.7206861E-001
3	0	1.919999951496720E+003	3.7489152E-001
3	0	1.979999949980993E+003	3.7772784E-001
3	0	2.039999948465265E+003	3.8051790E-001
3	0	2.099999946949538E+003	3.8327399E-001
3	0	2.159999945433810E+003	3.8595712E-001
3	0	2.219999943918083E+003	3.8858831E-001
3	0	2.279999942402355E+003	3.9121187E-001
3	0	2.339999940886628E+003	3.9378995E-001
3	0	2.399999939370900E+003	3.9628479E-001
3	0	2.459999937855173E+003	3.9870173E-001
3	0	2.519999936339445E+003	4.0112245E-001
3	0	2.579999934823718E+003	4.0347216E-001
3	0	2.639999933307990E+003	4.0575579E-001
3	0	2.699999931792263E+003	4.0800005E-001
3	0	2.759999930276535E+003	4.1017672E-001
3	0	2.819999928760808E+003	4.1227245E-001
3	0	2.879999927245080E+003	4.1429865E-001
3	0	2.939999925729353E+003	4.1627941E-001
3	0	2.999999924213625E+003	4.1816044E-001
3	0	3.059999922697898E+003	4.1999874E-001
3	0	3.119999921182171E+003	4.2176902E-001
3	0	3.179999919666443E+003	4.2345071E-001
3	0	3.239999918150716E+003	4.2510337E-001
3	0	3.299999916634988E+003	4.2664105E-001
3	0	3.359999915119261E+003	4.2816997E-001
3	0	3.419999913603533E+003	4.2957169E-001
3	0	3.479999912087806E+003	4.3096501E-001
3	0	3.539999910572078E+003	4.3226704E-001
3	0	3.599999909056351E+003	4.3354043E-001
3	0	3.659999907540623E+003	4.3474239E-001
3	0	3.719999906024896E+003	4.3592680E-001
3	0	3.779999904509168E+003	4.3704396E-001
3	0	3.839999902993441E+003	4.3811187E-001
3	0	3.899999901477713E+003	4.3915382E-001
3	0	3.959999899961986E+003	4.4014189E-001
3	0	4.019999898446258E+003	4.4110170E-001
3	0	4.079999896930531E+003	4.4203898E-001
3	0	4.139999895993620E+003	4.4290945E-001
3	0	4.199999895267189E+003	4.4376880E-001
3	0	4.259999894540757E+003	4.4460526E-001
3	0	4.319999893814325E+003	4.4541955E-001
3	0	4.379999893087894E+003	4.4617578E-001
3	0	4.439999892361462E+003	4.4692019E-001
3	0	4.499999891635031E+003	4.4764626E-001
3	0	4.559999890908599E+003	4.4833261E-001
3	0	4.619999890182167E+003	4.4903463E-001
3	0	4.679999889455736E+003	4.4967973E-001
3	0	4.739999888729304E+003	4.5027900E-001
3	0	4.799999888002872E+003	4.5090154E-001
3	0	4.859999887276441E+003	4.5150042E-001
3	0	4.919999886550009E+003	4.5204011E-001
3	0	4.979999885823578E+003	4.5263937E-001
3	0	5.039999885097146E+003	4.5316646E-001
3	0	5.099999884370714E+003	4.5365229E-001
3	0	5.159999883644283E+003	4.5416141E-001
3	0	5.219999882917851E+003	4.5466557E-001
3	0	5.279999882191420E+003	4.5511246E-001
3	0	5.339999881464988E+003	4.5558146E-001
3	0	5.399999880738556E+003	4.5597905E-001
3	0	5.459999880012125E+003	4.5640150E-001
3	0	5.519999879285693E+003	4.5681894E-001
3	0	5.579999878559262E+003	4.5723107E-001
3	0	5.639999877832830E+003	4.5760727E-001
3	0	5.699999877106398E+003	4.5798233E-001
3	0	5.759999876379967E+003	4.5835015E-001
3	0	5.819999875653535E+003	4.5869505E-001
3	0	5.879999874927104E+003	4.5905101E-001
3	0	5.939999874200672E+003	4.5935658E-001
3	0	5.999999873474240E+003	4.5970720E-001
3	0	6.059999872747809E+003	4.5997608E-001
3	0	6.119999872021377E+003	4.6029040E-001
3	0	6.179999871294945E+003	4.6062651E-001
3	0	6.239999870568514E+003	4.6090686E-001
3	0	6.299999869842082E+003	4.6115398E-001
3	0	6.359999869115651E+003	4.6140301E-001
3	0	6.419999868389219E+003	4.6168450E-001
3	0	6.479999867662787E+003	4.6192932E-001
3	0	6.539999866936356E+003	4.6216345E-001
3	0	6.599999866209924E+003	4.6238843E-001
3	0	6.659999865483493E+003	4.6262178E-001
3	0	6.719999864757061E+003	4.6284941E-001
3	0	6.779999864030629E+003	4.6304420E-001
3	0	6.839999863304198E+003	4.6325999E-001
3	0	6.899999862577766E+003	4.6347237E-001
3	0	6.959999861851335E+003	4.6364653E-001
3	0	7.019999861124903E+003	4.6383062E-001
3	0	7.079999860398471E+003	4.6401358E-001
3	0	7.139999859672040E+003	4.6417475E-001
3	0	7.199999858945608E+003	4.6430957E-001
3	0	7.259999858219177E+003	4.6445358E-001
3	0	7.319999857492745E+003	4.6460825E-001
3	0	7.379999856766313E+003	4.6474576E-001
3	0	7.439999856039882E+003	4.6490806E-001
3	0	7.499999855313450E+003	4.6503374E-001
3	0	7.559999854587018E+003	4.6518117E-001
3	0	7.619999853860587E+003	4.6529919E-001
3	0	7.679999853134155E+003	4.6540764E-001
3	0	7.739999852407724E+003	4.6549779E-001
3	0	7.799999851681292E+003	4.6560740E-001
3	0	7.859999850954860E+003	4.6569258E-001
3	0	7.919999850228429E+003	4.6579990E-001
3	0	7.979999849501997E+003	4.6589655E-001
3	0	8.039999848775566E+003	4.6594581E-001
3	0	8.099999848049134E+003	4.6602219E-001
3	0	8.159999847322702E+003	4.6607873E-001
3	0	8.219999846596256E+003	4.6615779E-001
3	0	8.279999845869825E+003	4.6623302E-001
3	0	8.339999845143393E+003	4.6627885E-001
3	0	8.399999844416961E+003	4.6631745E-001
3	0	8.459999843690530E+003	4.6639383E-001
3	0	8.519999842964098E+003	4.6640566E-001
3	0	8.579999842237667E+003	4.6648282E-001
3	0	8.639999841511235E+003	4.6651796E-001
3	0	8.699999840784803E+003	4.6652445E-001
3	0	8.759999840058372E+003	4.6657333E-001
3	0	8.819999839331940E+003	4.6660617E-001
3	0	8.879999838605509E+003	4.6663177E-001
3	0	8.939999837879077E+003	4.6665546E-001
3	0	8.999999837152645E+003	4.6666920E-001
3	0	9.059999836426214E+003	4.6666270E-001
3	0	9.119999835699782E+003	4.6666041E-001
3	0	9.179999834973351E+003	4.6668294E-001
3	0	9.239999834246919E+003	4.6667188E-001
3	0	9.299999833520487E+003	4.6667683E-001
3	0	9.359999832794056E+003	4.6666768E-001
3	0	9.419999832067624E+003	4.6667033E-001
3	0	9.479999831341192E+003	4.6667036E-001
3	0	9.539999830614761E+003	4.6665126E-001
3	0	9.599999829888329E+003	4.6665928E-001
3	0	9.659999829161898E+003	4.6664628E-001
3	0	9.719999828435466E+003	4.6664247E-001
3	0	9.779999827709034E+003	4.6659204E-001
3	0	9.839999826982603E+003	4.6658519E-001
3	0	9.899999826256171E+003	4.6654698E-001
3	0	9.959999825529740E+003	4.6654278E-001
3	0	1.001999982480331E+004	4.6653935E-001
3	0	1.007999982407688E+004	4.6652293E-001
3	0	1.013999982335044E+004	4.6648663E-001
3	0	1.019999982262401E+004	4.6646029E-001
3	0	1.025999982189758E+004	4.6643928E-001
3	0	1.031999982117115E+004	4.6636823E-001
3	0	1.037999982044472E+004	4.6633118E-001
3	0	1.043999981971829E+004	4.6631476E-001
3	0	1.049999981899186E+004	4.6624792E-001
3	0	1.055999981826542E+004	4.6620896E-001
3	0	1.061999981753899E+004	4.6615779E-001
3	0	1.067999981681256E+004	4.6611577E-001
3	0	1.073999981608613E+004	4.6607223E-001
3	0	1.079999981535970E+004	4.6601838E-001
3	0	1.085999981463327E+004	4.6598285E-001
3	0	1.091999981390683E+004	4.6592519E-001
3	0	1.097999981318040E+004	4.6588013E-001
3	0	1.103999981245397E+004	4.6581098E-001
3	0	1.109999981172754E+004	4.6577853E-001
3	0	1.115999981100111E+004	4.6572009E-001
3	0	1.121999981027468E+004	4.6568570E-001
3	0	1.127999980954824E+004	4.6562764E-001
3	0	1.133999980882181E+004	4.6557570E-001
3	0	1.139999980809538E+004	4.6549550E-001
3	0	1.145999980736895E+004	4.6541986E-001
3	0	1.151999980664252E+004	4.6535113E-001
3	0	1.157999980591609E+004	4.6529308E-001
3	0	1.163999980518965E+004	4.6524113E-001
3	0	1.169999980446322E+004	4.6515480E-001
3	0	1.175999980373679E+004	4.6510172E-001
3	0	1.181999980301036E+004	4.6503335E-001
3	0	1.187999980228393E+004	4.6496651E-001
3	0	1.193999980155750E+004	4.6489584E-001
3	0	1.199999980083106E+004	4.6482098E-001
3	0	1.205999980010463E+004	4.6476561E-001
3	0	1.211999979937820E+004	4.6469495E-001
3	0	1.217999979865177E+004	4.6463346E-001
3	0	1.223999979792534E+004	4.6455401E-001
3	0	1.229999979719891E+004	4.6450856E-001
3	0	1.235999979647248E+004	4.6443066E-001
3	0	1.241999979574604E+004	4.6437451E-001
3	0	1.247999979501961E+004	4.6430805E-001
3	0	1.253999979429318E+004	4.6423739E-001
3	0	1.259999979356675E+004	4.6418124E-001
3	0	1.265999979284032E+004	4.6407849E-001
3	0	1.271999979211389E+004	4.6401432E-001
3	0	1.277999979138745E+004	4.6395856E-001
3	0	1.283999979066102E+004	4.6387684E-001
3	0	1.289999978993459E+004	4.6383712E-001
3	0	1.295999978920816E+004	4.6374735E-001
3	0	1.301999978848173E+004	4.6366945E-001
3	0	1.307999978775530E+004	4.6361560E-001
3	0	1.313999978702886E+004	4.6357700E-001
3	0	1.319999978630243E+004	4.6346587E-001
3	0	1.325999978557600E+004	4.6343988E-001
3	0	1.331999978484957E+004	4.6334824E-001
3	0	1.337999978412314E+004	4.6328443E-001
3	0	1.343999978339671E+004	4.6324205E-001
3	0	1.349999978267027E+004	4.6317330E-001
3	0	1.355999978194384E+004	4.6308011E-001
3	0	1.361999978121741E+004	4.6302128E-001
3	0	1.367999978049098E+004	4.6292388E-001
3	0	1.373999977976455E+004	4.6285629E-001
3	0	1.379999977903812E+004	4.6279174E-001
3	0	1.385999977831169E+004	4.6273828E-001
3	0	1.391999977758525E+004	4.6268058E-001
3	0	1.397999977685882E+004	4.6260497E-001
3	0	1.403999977613239E+004	4.6255991E-001
3	0	1.409999977540596E+004	4.6246746E-001
3	0	1.415999977467953E+004	4.6244034E-001
3	0	1.421999977395310E+004	4.6236131E-001
3	0	1.427999977322666E+004	4.6230477E-001
3	0	1.433999977250023E+004	4.6224862E-001
3	0	1.439999977177380E+004	4.6220431E-001
3	0	1.445999977104737E+004	4.6213251E-001
3	0	1.451999977032094E+004	4.6207178E-001
3	0	1.457999976959451E+004	4.6200073E-001
3	0	1.463999976886807E+004	4.6194422E-001
3	0	1.469999976814164E+004	4.6194422E-001
3	0	1.475999976741521E+004	4.6189457E-001
3	0	1.481999976668878E+004	4.6185446E-001
3	0	1.487999976596235E+004	4.6184224E-001
3	0	1.493999976523592E+004	4.6183002E-001
3	0	1.499999976450948E+004	4.6179679E-001
3	0	1.505999976378305E+004	4.6176547E-001
3	0	1.511999976305662E+004	4.6173722E-001
3	0	1.517999976233019E+004	4.6172652E-001
3	0	1.523999976160376E+004	4.6170053E-001
3	0	1.529999976087733E+004	4.6166998E-001
3	0	1.535999976015089E+004	4.6163714E-001
3	0	1.541999975942446E+004	4.6163446E-001
3	0	1.547999975869803E+004	4.6160352E-001
3	0	1.553999975797160E+004	4.6156687E-001
3	0	1.559999975724517E+004	4.6152675E-001
3	0	1.565999975651874E+004	4.6153820E-001
3	0	1.571999975579232E+004	4.6151796E-001
3	0	1.577999975506589E+004	4.6148321E-001
3	0	1.583999975433946E+004	4.6144730E-001
3	0	1.589999975361303E+004	4.6143088E-001
3	0	1.595999975288659E+004	4.6139956E-001
3	0	1.601999975216016E+004	4.6136060E-001
3	0	1.607999975143373E+004	4.6136519E-001
3	0	1.613999975070730E+004	4.6133655E-001
3	0	1.619999974998087E+004	4.6133617E-001
3	0	1.625999974925444E+004	4.6129605E-001
3	0	1.631999974852800E+004	4.6125749E-001
3	0	1.637999974780157E+004	4.6128041E-001
3	0	1.643999974707514E+004	4.6124870E-001
3	0	1.649999974634871E+004	4.6124297E-001
3	0	1.655999974562228E+004	4.6122426E-001
3	0	1.661999974489585E+004	4.6117690E-001
3	0	1.667999974416941E+004	4.6117574E-001
3	0	1.673999974344298E+004	4.6115741E-001
3	0	1.679999974271655E+004	4.6116507E-001
3	0	1.685999974199012E+004	4.6114367E-001
3	0	1.691999974126369E+004	4.6111616E-001
3	0	1.697999974053726E+004	4.6106690E-001
3	0	1.703999973981082E+004	4.6108064E-001
3	0	1.709999973908439E+004	4.6103442E-001
3	0	1.715999973835796E+004	4.6107605E-001
3	0	1.721999973763153E+004	4.6100694E-001
3	0	1.727999973690510E+004	4.6101418E-001
3	0	1.733999973617867E+004	4.6101457E-001
3	0	1.739999973545223E+004	4.6099663E-001
3	0	1.745999973472580E+004	4.6098173E-001
3	0	1.751999973399937E+004	4.6099624E-001
3	0	1.757999973327294E+004	4.6098632E-001
3	0	1.763999973254651E+004	4.6097410E-001
3	0	1.769999973182008E+004	4.6094507E-001
3	0	1.775999973109365E+004	4.6094316E-001
3	0	1.781999973036721E+004	4.6094736E-001
3	0	1.787999972964078E+004	4.6092099E-001
3	0	1.793999972891435E+004	4.6090916E-001
3	0	1.799999972818792E+004	4.6091756E-001
3	0	1.805999972746149E+004	4.6089426E-001
3	0	1.811999972673506E+004	4.6088701E-001
3	0	1.817999972600862E+004	4.6089426E-001
3	0	1.823999972528219E+004	4.6086103E-001
3	0	1.829999972455576E+004	4.6084920E-001
3	0	1.835999972382933E+004	4.6084157E-001
3	0	1.841999972310290E+004	4.6084040E-001
3	0	1.847999972237647E+004	4.6081060E-001
3	0	1.853999972165003E+004	4.6082360E-001
3	0	1.859999972092360E+004	4.6080488E-001
3	0	1.865999972019717E+004	4.6077701E-001
3	0	1.871999971947074E+004	4.6075982E-001
3	0	1.877999971874431E+004	4.6078616E-001
3	0	1.883999971801788E+004	4.6075904E-001
3	0	1.889999971729144E+004	4.6074414E-001
3	0	1.895999971656501E+004	4.6073309E-001
3	0	1.901999971583858E+004	4.6071512E-001
3	0	1.907999971511215E+004	4.6072009E-001
3	0	1.913999971438572E+004	4.6069947E-001
3	0	1.919999971365929E+004	4.6070215E-001
3	0	1.925999971293285E+004	4.6067464E-001
3	0	1.931999971220642E+004	4.6066624E-001
3	0	1.937999971147999E+004	4.6065706E-001
3	0	1.943999971075356E+004	4.6066624E-001
3	0	1.949999971002713E+004	4.6065515E-001
3	0	1.955999970930070E+004	4.6062079E-001
3	0	1.961999970857427E+004	4.6061850E-001
3	0	1.967999970784783E+004	4.6060550E-001
3	0	1.973999970712140E+004	4.6058375E-001
3	0	1.979999970639497E+004	4.6056998E-001
3	0	1.985999970566854E+004	4.6054900E-001
3	0	1.991999970494211E+004	4.6054134E-001
3	0	1.997999970421568E+004	4.6049359E-001
3	0	2.003999970348924E+004	4.6049514E-001
3	0	2.009999970276281E+004	4.6048099E-001
3	0	2.015999970203638E+004	4.6046802E-001
3	0	2.021999970130995E+004	4.6042714E-001
3	0	2.027999970058352E+004	4.6041262E-001
3	0	2.033999969985709E+004	4.6040308E-001
3	0	2.039999969913065E+004	4.6038437E-001
3	0	2.045999969840422E+004	4.6034044E-001
3	0	2.051999969767779E+004	4.6035764E-001
3	0	2.057999969695136E+004	4.6034962E-001
3	0	2.063999969622493E+004	4.6030799E-001
3	0	2.069999969549850E+004	4.6029690E-001
3	0	2.075999969477206E+004	4.6026903E-001
3	0	2.081999969404563E+004	4.6026674E-001
3	0	2.087999969331920E+004	4.6025261E-001
3	0	2.093999969259277E+004	4.6023503E-001
3	0	2.099999969186634E+004	4.6022090E-001
3	0	2.105999969113991E+004	4.6020907E-001
3	0	2.111999969041348E+004	4.6019682E-001
3	0	2.117999968968704E+004	4.6015024E-001
3	0	2.123999968896061E+004	4.6013725E-001
3	0	2.129999968823418E+004	4.6011394E-001
3	0	2.135999968750775E+004	4.6010593E-001
3	0	2.141999968678132E+004	4.6010402E-001
3	0	2.147999968605489E+004	4.6005476E-001
3	0	2.153999968532845E+004	4.6005398E-001
3	0	2.159999968460202E+004	4.5999861E-001
3	0	2.165999968387559E+004	4.5995507E-001
3	0	2.171999968314916E+004	4.5995277E-001
3	0	2.177999968242273E+004	4.5991457E-001
3	0	2.183999968169630E+004	4.5990235E-001
3	0	2.189999968096986E+004	4.5985538E-001
3	0	2.195999968024343E+004	4.5986071E-001
3	0	2.201999967951700E+004	4.5980611E-001
3	0	2.207999967879057E+004	4.5979619E-001
3	0	2.213999967806414E+004	4.5972362E-001
3	0	2.219999967733771E+004	4.5973623E-001
3	0	2.225999967661127E+004	4.5969000E-001
3	0	2.231999967588484E+004	4.5965487E-001
3	0	2.237999967515841E+004	4.5964456E-001
3	0	2.243999967443198E+004	4.5957580E-001
3	0	2.249999967370555E+004	4.5955786E-001
3	0	2.255999967297912E+004	4.5950973E-001
3	0	2.261999967225268E+004	4.5948642E-001
3	0	2.267999967152625E+004	4.5943564E-001
3	0	2.273999967079982E+004	4.5939094E-001
3	0	2.279999967007339E+004	4.5934662E-001
3	0	2.285999966934696E+004	4.5932829E-001
3	0	2.291999966862053E+004	4.5930272E-001
3	0	2.297999966789410E+004	4.5925000E-001
3	0	2.303999966716766E+004	4.5922327E-001
3	0	2.309999966644123E+004	4.5914498E-001
3	0	2.315999966571480E+004	4.5912245E-001
3	0	2.321999966498837E+004	4.5909533E-001
3	0	2.327999966426194E+004	4.5904338E-001
3	0	2.333999966353551E+004	4.5903459E-001
3	0	2.339999966280907E+004	4.5896012E-001
3	0	2.345999966208264E+004	4.5893911E-001
3	0	2.351999966135621E+004	4.5890281E-001
3	0	2.357999966062978E+004	4.5885926E-001
3	0	2.363999965990335E+004	4.5882452E-001
3	0	2.369999965917692E+004	4.5880389E-001
3	0	2.375999965845048E+004	4.5872638E-001
3	0	2.381999965772405E+004	4.5867327E-001
3	0	2.387999965699762E+004	4.5863929E-001
3	0	2.393999965627119E+004	4.5861483E-001
3	0	2.399999965554476E+004	4.5856556E-001
3	0	2.405999965481833E+004	4.5853159E-001
3	0	2.411999965409189E+004	4.5849186E-001
3	0	2.417999965336546E+004	4.5841584E-001
3	0	2.423999965263903E+004	4.5837420E-001
3	0	2.429999965191260E+004	4.5832264E-001
3	0	2.435999965118617E+004	4.5829323E-001
3	0	2.441999965045974E+004	4.5825237E-001
3	0	2.447999964973331E+004	4.5819202E-001
3	0	2.453999964900687E+004	4.5814925E-001
3	0	2.459999964828044E+004	4.5809120E-001
3	0	2.465999964755401E+004	4.5807132E-001
3	0	2.471999964682758E+004	4.5800754E-001
3	0	2.477999964610115E+004	4.5797318E-001
3	0	2.483999964537472E+004	4.5792353E-001
3	0	2.489999964464828E+004	4.5784524E-001
3	0	2.495999964392185E+004	4.5779100E-001
3	0	2.501999964319542E+004	4.5776042E-001
3	0	2.507999964246899E+004	4.5769855E-001
3	0	2.513999964174256E+004	4.5765540E-001
3	0	2.519999964101613E+004	4.5761758E-001
3	0	2.525999964028969E+004	4.5756489E-001
3	0	2.531999963956326E+004	4.5751294E-001
3	0	2.537999963883683E+004	4.5745909E-001
3	0	2.543999963811040E+004	4.5742625E-001
3	0	2.549999963738397E+004	4.5738271E-001
3	0	2.555999963665754E+004	4.5732731E-001
3	0	2.561999963593110E+004	4.5729217E-001
3	0	2.567999963520467E+004	4.5721999E-001
3	0	2.573999963447824E+004	4.5720625E-001
3	0	2.579999963375181E+004	4.5716384E-001
3	0	2.585999963302538E+004	4.5710313E-001
3	0	2.591999963229895E+004	4.5707676E-001
3	0	2.597999963157251E+004	4.5703971E-001
3	0	2.603999963084608E+004	4.5696792E-001
3	0	2.609999963011965E+004	4.5689496E-001
3	0	2.615999962939322E+004	4.5686248E-001
3	0	2.621999962866679E+004	4.5680407E-001
3	0	2.627999962794036E+004	4.5676127E-001
3	0	2.633999962721393E+004	4.5671391E-001
3	0	2.639999962648749E+004	4.5666122E-001
3	0	2.645999962576106E+004	4.5661271E-001
3	0	2.651999962503463E+004	4.5656800E-001
3	0	2.657999962430820E+004	4.5648399E-001
3	0	2.663999962358177E+004	4.5648512E-001
3	0	2.669999962285534E+004	4.5643014E-001
3	0	2.675999962212890E+004	4.5637017E-001
3	0	2.681999962140247E+004	4.5630333E-001
3	0	2.687999962067604E+004	4.5624527E-001
3	0	2.693999961994961E+004	4.5621741E-001
3	0	2.699999961922318E+004	4.5613566E-001
3	0	2.705999961849675E+004	4.5608103E-001
3	0	2.711999961777031E+004	4.5601496E-001
3	0	2.717999961704388E+004	4.5599052E-001
3	0	2.723999961631745E+004	4.5593438E-001
3	0	2.729999961559102E+004	4.5586944E-001
3	0	2.735999961486459E+004	4.5579115E-001
3	0	2.741999961413816E+004	4.5576099E-001
3	0	2.747999961341172E+004	4.5568916E-001
3	0	2.753999961268529E+004	4.5563912E-001
3	0	2.759999961195886E+004	4.5559293E-001
3	0	2.765999961123243E+004	4.5550659E-001
3	0	2.771999961050600E+004	4.5543060E-001
3	0	2.777999960977957E+004	4.5536566E-001
3	0	2.783999960905313E+004	4.5530838E-001
3	0	2.789999960832670E+004	4.5524535E-001
3	0	2.795999960760027E+004	4.5519570E-001
3	0	2.801999960687384E+004	4.5510978E-001
3	0	2.807999960614741E+004	4.5506126E-001
3	0	2.813999960542098E+004	4.5500857E-001
3	0	2.819999960469455E+004	4.5495394E-001
3	0	2.825999960396811E+004	4.5486495E-001
3	0	2.831999960324168E+004	4.5480078E-001
3	0	2.837999960251525E+004	4.5475417E-001
3	0	2.843999960178882E+004	4.5468277E-001
3	0	2.849999960106239E+004	4.5461744E-001
3	0	2.855999960033596E+004	4.5454183E-001
3	0	2.861999959960952E+004	4.5448223E-001
3	0	2.867999959888309E+004	4.5440012E-001
3	0	2.873999959815666E+004	4.5435965E-001
3	0	2.879999959743023E+004	4.5426109E-001
3	0	2.885999959670380E+004	4.5421374E-001
3	0	2.891999959597737E+004	4.5410985E-001
3	0	2.897999959525093E+004	4.5404226E-001
3	0	2.903999959452450E+004	4.5397004E-001
3	0	2.909999959379807E+004	4.5392039E-001
3	0	2.915999959307164E+004	4.5384592E-001
3	0	2.921999959234521E+004	4.5375732E-001
3	0	2.927999959161878E+004	4.5368361E-001
3	0	2.933999959089234E+004	4.5359996E-001
3	0	2.939999959016591E+004	4.5352471E-001
3	0	2.945999958943948E+004	4.5344603E-001
3	0	2.951999958871305E+004	4.5335436E-001
3	0	2.957999958798662E+004	4.5329249E-001
3	0	2.963999958726019E+004	4.5321801E-001
3	0	2.969999958653376E+004	4.5313361E-001
3	0	2.975999958580732E+004	4.5307019E-001
3	0	2.981999958508089E+004	4.5296210E-001
3	0	2.987999958435446E+004	4.5289603E-001
3	0	2.993999958362803E+004	4.5282346E-001
3	0	2.999999958290160E+004	4.5273295E-001
3	0	3.005999958217517E+004	4.5266038E-001
3	0	3.011999958144873E+004	4.5259202E-001
3	0	3.017999958072230E+004	4.5250571E-001
3	0	3.023999957999587E+004	4.5240983E-001
3	0	3.029999957926944E+004	4.5232618E-001
3	0	3.035999957854301E+004	4.5222917E-001
3	0	3.041999957781658E+004	4.5217380E-001
3	0	3.047999957709014E+004	4.5205921E-001
3	0	3.053999957636371E+004	4.5196259E-001
3	0	3.059999957563728E+004	4.5187014E-001
3	0	3.065999957491085E+004	4.5179796E-001
3	0	3.071999957418442E+004	4.5168948E-001
3	0	3.077999957345799E+004	4.5161119E-001
3	0	3.083999957273155E+004	4.5150539E-001
3	0	3.089999957200512E+004	4.5140722E-001
3	0	3.095999957127869E+004	4.5129991E-001
3	0	3.101999957055226E+004	4.5121741E-001
3	0	3.107999956982583E+004	4.5111963E-001
3	0	3.113999956909940E+004	4.5102033E-001
3	0	3.119999956837296E+004	4.5092216E-001
3	0	3.125999956764653E+004	4.5080301E-001
3	0	3.131999956692010E+004	4.5070753E-001
3	0	3.137999956619367E+004	4.5061663E-001
3	0	3.143999956546724E+004	4.5049402E-001
3	0	3.149999956474081E+004	4.5040503E-001
3	0	3.155999956401438E+004	4.5030189E-001
3	0	3.161999956328794E+004	4.5021406E-001
3	0	3.167999956256151E+004	4.5010445E-001
3	0	3.173999956183508E+004	4.4998032E-001
3	0	3.179999956110865E+004	4.4986457E-001
3	0	3.185999956038222E+004	4.4974464E-001
3	0	3.191999955965579E+004	4.4966063E-001
3	0	3.197999955892935E+004	4.4955865E-001
3	0	3.203999955820292E+004	4.4943106E-001
3	0	3.209999955747649E+004	4.4930810E-001
3	0	3.215999955675006E+004	4.4922826E-001
3	0	3.221999955602363E+004	4.4910681E-001
3	0	3.227999955529720E+004	4.4900176E-001
3	0	3.233999955457076E+004	4.4889405E-001
3	0	3.239999955384433E+004	4.4875580E-001
3	0	3.245999955311790E+004	4.4864962E-001
3	0	3.251999955239147E+004	4.4853923E-001
3	0	3.257999955166504E+004	4.4841474E-001
3	0	3.263999955093861E+004	4.4829366E-001
3	0	3.269999955021217E+004	4.4818899E-001
3	0	3.275999954948574E+004	4.4808093E-001
3	0	3.281999954948586E+004	4.4795221E-001
3	0	3.287999954959762E+004	4.4783801E-001
3	0	3.293999954970938E+004	4.4772953E-001
3	0	3.299999954982114E+004	4.4760844E-001
3	0	3.305999954993289E+004	4.4747517E-001
3	0	3.311999955004465E+004	4.4736096E-001
3	0	3.317999955015641E+004	4.4721237E-001
3	0	3.323999955026817E+004	4.4709855E-001
3	0	3.329999955037993E+004	4.4699466E-001
3	0	3.335999955049169E+004	4.4683921E-001
3	0	3.341999955060345E+004	4.4672465E-001
3	0	3.347999955071521E+004	4.4661504E-001
3	0	3.353999955082696E+004	4.4647601E-001
3	0	3.359999955093872E+004	4.4634730E-001
3	0	3.365999955105048E+004	4.4623423E-001
3	0	3.371999955116224E+004	4.4609407E-001
3	0	3.377999955127400E+004	4.4599551E-001
3	0	3.383999955138576E+004	4.4586489E-001
3	0	3.389999955149752E+004	4.4572932E-001
3	0	3.395999955160927E+004	4.4560021E-001
3	0	3.401999955172103E+004	4.4550052E-001
3	0	3.407999955183279E+004	4.4537449E-001
3	0	3.413999955194455E+004	4.4526640E-001
3	0	3.419999955205631E+004	4.4514838E-001
3	0	3.425999955216807E+004	4.4502959E-001
3	0	3.431999955227983E+004	4.4491997E-001
3	0	3.437999955239159E+004	4.4484434E-001
3	0	3.443999955250334E+004	4.4470608E-001
3	0	3.449999955261510E+004	4.4464841E-001
3	0	3.455999955272686E+004	4.4451970E-001
3	0	3.461999955283862E+004	4.4442764E-001
3	0	3.467999955295038E+004	4.4432682E-001
3	0	3.473999955306214E+004	4.4423133E-001
3	0	3.479999955317390E+004	4.4411790E-001
3	0	3.485999955328566E+004	4.4400868E-001
3	0	3.491999955339741E+004	4.4393763E-001
3	0	3.497999955350917E+004	4.4382343E-001
3	0	3.503999955362093E+004	4.4372526E-001
3	0	3.509999955373269E+004	4.4360724E-001
3	0	3.515999955384445E+004	4.4348961E-001
3	0	3.521999955395621E+004	4.4339603E-001
3	0	3.527999955406797E+004	4.4327915E-001
3	0	3.533999955417973E+004	4.4318712E-001
3	0	3.539999955429148E+004	4.4308934E-001
3	0	3.545999955440324E+004	4.4298658E-001
3	0	3.551999955451500E+004	4.4285443E-001
3	0	3.557999955462676E+004	4.4274789E-001
3	0	3.563999955473852E+004	4.4264820E-001
3	0	3.569999955485028E+004	4.4252712E-001
3	0	3.575999955496204E+004	4.4240260E-001
3	0	3.581999955507379E+004	4.4230559E-001
3	0	3.587999955518555E+004	4.4222385E-001
3	0	3.593999955529731E+004	4.4208482E-001
3	0	3.599999955540907E+004	4.4194084E-001
3	0	3.599999995540908E+004	4.4194466E-001