EC-Lab ASCII FILE
Nb header lines : 54                          

Open Circuit Voltage

Run on channel : 1 (SN 15265)
User : 
Electrode connection : standard
Potential control : Ewe
Ewe ctrl range : min = 3,00 V, max = 4,50 V
Ewe,I filtering : 50 kHz
Safety Limits :
	Do not start on E overload
Channel : Floating
Acquisition started on : 01/10/2024 11:02:29.886
Technique started on : 01/10/2024 11:02:30.886
Loaded Setting File :  NONE
Saved on :
	File : ***.mpr
	Directory : C:\Users\***\
	Host : 169.254.189.50
Device : SP-300 (SN 1854)
Address : 169.254.189.65
EC-Lab for windows v11.50 (software)
Internet server v11.50 (firmware)
Command interpretor v11.50 (firmware)
Electrode material : 
Initial state : 
Electrolyte : 
Comments : 
Cable : standard
Electrode surface area : 0,000 cm²
Characteristic mass : 0,001 g
Equivalent Weight : 0,000 g/eq.
Density : 0,000 g/cm3
Volume (V) : 0,001 cm³
Record Power
Record EIS quality indicators
Cycle Definition : Charge/Discharge alternance
tR (h:m:s)          0:00:10,0000        
dER/dt (mV/h)       0,0                 
record              <Ewe>               
dER (mV)            0,00                
dtR (s)             1,0000              
E range min (V)     3,000               
E range max (V)     4,500               

Number of loops : 4
Loop 0 from point number 0 to 9
Loop 1 from point number 10 to 20
Loop 2 from point number 21 to 31
Loop 3 from point number 32 to 42

mode	error	time/s	<Ewe/V>	
3	1	9,999999747378752E-001	3,4206879E+000
3	0	1,999999949475750E+000	3,4206829E+000
3	0	2,999999924213625E+000	3,4206815E+000
3	0	3,999999898951501E+000	3,4206827E+000
3	0	4,999999873689376E+000	3,4206798E+000
3	0	5,999999848427251E+000	3,4206772E+000
3	0	6,999999823165126E+000	3,4206753E+000
3	0	7,999999797903001E+000	3,4206722E+000
3	0	8,999999772640876E+000	3,4206650E+000
3	0	9,999799747383804E+000	3,4206650E+000
3	0	2,014195992963068E+002	3,4372160E+000
3	0	2,024195992710447E+002	3,4344788E+000
3	0	2,034195992457826E+002	3,4335892E+000
3	0	2,044195992205205E+002	3,4330478E+000
3	0	2,054195991952583E+002	3,4326522E+000
3	0	2,064195991699962E+002	3,4323306E+000
3	0	2,074195991447341E+002	3,4320710E+000
3	0	2,084195991194720E+002	3,4318550E+000
3	0	2,094195990942098E+002	3,4316723E+000
3	0	2,104195990689477E+002	3,4315083E+000
3	0	2,104203990689275E+002	3,4314282E+000
3	0	4,012301985888771E+002	3,4422569E+000
3	0	4,022301985636150E+002	3,4396782E+000
3	0	4,032301985383529E+002	3,4388745E+000
3	0	4,042301985130907E+002	3,4383748E+000
3	0	4,052301984878286E+002	3,4380076E+000
3	0	4,062301984625665E+002	3,4377244E+000
3	0	4,072301984373044E+002	3,4374819E+000
3	0	4,082301984120422E+002	3,4372745E+000
3	0	4,092301983867801E+002	3,4370923E+000
3	0	4,102301983615180E+002	3,4369333E+000
3	0	4,102309983614978E+002	3,4368458E+000
3	0	6,008317978715204E+002	3,4460111E+000
3	0	6,018317978462583E+002	3,4435616E+000
3	0	6,028317978209961E+002	3,4428005E+000
3	0	6,038317977957340E+002	3,4423366E+000
3	0	6,048317977704719E+002	3,4419944E+000
3	0	6,058317977452098E+002	3,4417188E+000
3	0	6,068317977199476E+002	3,4415019E+000
3	0	6,078317976946855E+002	3,4413135E+000
3	0	6,088317976694234E+002	3,4411368E+000
3	0	6,098317976441613E+002	3,4409854E+000
3	0	6,098325976441411E+002	3,4408994E+000