EC-Lab ASCII FILE
Nb header lines : 44                          

Open Circuit Voltage

Run on channel : 1 (SN 51009)
User : 
CE vs. WE compliance from -10 V to 10 V
Electrode connection : standard
Potential control : Ewe
Ewe ctrl range : min = -5.00 V, max = 5.00 V
Safety Limits :
	Do not start on E overload
Acquisition started on : 01/11/2022 21:29:23.325
Loaded Setting File :  NONE
Saved on :
	File : 20220111_Li_LiCB11CB9_2to1_Li_100,07mg_60C_3-rod_0,9-0,45Nm_CCD_0,25mAhcm-2_C10-2C_20steps_02_OCV_C01.mpr
	Directory : C:\Users\lab131\Desktop\VSP LA174 local\Ryo\Li symmetric\
	Host : 192.109.209.1
Device : VSP-3e (SN .003076)
Address : 192.109.209.128
EC-Lab for windows v11.36 (software)
Internet server v11.36 (firmware)
Command interpretor v11.36 (firmware)
Electrode material : 
Initial state : 
Electrolyte : 
Comments : symmetrical cell
Comments : NBA HT 900 °C and left in ethanol for 24 h
Electrode surface area : 0.500 cm²
Characteristic mass : 0.001 g
Equivalent Weight : 0.000 g/eq.
Density : 0.000 g/cm3
Volume (V) : 0.000 m³
Cycle Definition : Charge/Discharge alternance
tR (h:m:s)          2:00:0.0000         
dER/dt (mV/h)       0.0                 
record              Ewe                 
dER (mV)            0.00                
dtR (s)             60.0000             
E range min (V)     -5.000              
E range max (V)     5.000               

mode	error	time/s	Ewe/V	
3	0	1.525219472440513E+003	3.2914482E-002
3	0	1.585219470924785E+003	2.7316909E-002
3	0	1.645219469409058E+003	2.6801581E-002
3	0	1.705219467893330E+003	2.7641375E-002
3	0	1.765219466377603E+003	2.7164219E-002
3	0	1.825219464861875E+003	2.6725236E-002
3	0	1.885219463346148E+003	2.7641375E-002
3	0	1.945219461830420E+003	2.7507773E-002
3	0	2.005219460314693E+003	2.7622290E-002
3	0	2.065219458798965E+003	2.7335996E-002
3	0	2.125219457283238E+003	2.6992444E-002
3	0	2.185219455767510E+003	2.7603203E-002
3	0	2.245219454251783E+003	2.7584117E-002
3	0	2.305219452736055E+003	2.7526857E-002
3	0	2.365219451220328E+003	2.7049702E-002
3	0	2.425219449704600E+003	2.7183305E-002
3	0	2.485219448188873E+003	2.7565030E-002
3	0	2.545219446673145E+003	2.7832238E-002
3	0	2.605219445157418E+003	2.7297823E-002
3	0	2.665219443641690E+003	2.7316909E-002
3	0	2.725219442125963E+003	2.7736807E-002
3	0	2.785219440610235E+003	2.7316909E-002
3	0	2.845219439094508E+003	2.7622290E-002
3	0	2.905219437578780E+003	2.7240565E-002
3	0	2.965219436063053E+003	2.7316909E-002
3	0	3.025219434547325E+003	2.7565030E-002
3	0	3.085219433031598E+003	2.7374169E-002
3	0	3.145219431515870E+003	2.7526857E-002
3	0	3.205219430000143E+003	2.7698634E-002
3	0	3.265219428484415E+003	2.7431427E-002
3	0	3.325219426968688E+003	2.7584117E-002
3	0	3.385219425452960E+003	2.7870411E-002
3	0	3.445219423937233E+003	2.7679548E-002
3	0	3.505219422421505E+003	2.7965842E-002
3	0	3.565219420905778E+003	2.8080359E-002
3	0	3.625219419390050E+003	2.7965842E-002
3	0	3.685219417874323E+003	2.7794065E-002
3	0	3.745219416358595E+003	2.8042186E-002
3	0	3.805219414842868E+003	2.8213963E-002
3	0	3.865219413327141E+003	2.7698634E-002
3	0	3.925219411811413E+003	2.8099446E-002
3	0	3.985219410295686E+003	2.8061273E-002
3	0	4.045219408779958E+003	2.8080359E-002
3	0	4.105219407385506E+003	2.7851325E-002
3	0	4.165219406659075E+003	2.7870411E-002
3	0	4.225219405932643E+003	2.8004015E-002
3	0	4.285219405206211E+003	2.7622290E-002
3	0	4.345219404479780E+003	2.8328480E-002
3	0	4.405219403753348E+003	2.7870411E-002
3	0	4.465219403026917E+003	2.7984928E-002
3	0	4.525219402300485E+003	2.7946755E-002
3	0	4.585219401574053E+003	2.8156703E-002
3	0	4.645219400847622E+003	2.1552868E-002
3	0	4.705219400121190E+003	2.7908582E-002
3	0	4.765219399394759E+003	2.7965842E-002
3	0	4.825219398668327E+003	2.4396716E-002
3	0	4.885219397941895E+003	2.4549406E-002
3	0	4.945219397215464E+003	2.4835700E-002
3	0	5.005219396489032E+003	2.8442997E-002
3	0	5.065219395762600E+003	2.4244025E-002
3	0	5.125219395036169E+003	2.7698634E-002
3	0	5.185219394309737E+003	2.8271221E-002
3	0	5.245219393583320E+003	2.4148595E-002
3	0	5.305219392856889E+003	2.8576601E-002
3	0	5.365219392130457E+003	2.5560977E-002
3	0	5.425219391404025E+003	2.5961787E-002
3	0	5.485219390677594E+003	2.4950217E-002
3	0	5.545219389951162E+003	2.5351027E-002
3	0	5.605219389224731E+003	2.6496202E-002
3	0	5.665219388498299E+003	2.4549406E-002
3	0	5.725219387771867E+003	2.8557515E-002
3	0	5.785219387045436E+003	2.7965842E-002
3	0	5.845219386319004E+003	2.4778441E-002
3	0	5.905219385592573E+003	2.8576601E-002
3	0	5.965219384866141E+003	2.4492146E-002
3	0	6.025219384139709E+003	2.7565030E-002
3	0	6.085219383413278E+003	2.5866356E-002
3	0	6.145219382686846E+003	2.4625750E-002
3	0	6.205219381960414E+003	2.6839754E-002
3	0	6.265219381233983E+003	2.8252134E-002
3	0	6.325219380507551E+003	2.4473062E-002
3	0	6.385219379781120E+003	2.8137617E-002
3	0	6.445219379054688E+003	2.4892958E-002
3	0	6.505219378328256E+003	2.7984928E-002
3	0	6.565219377601825E+003	2.5580062E-002
3	0	6.625219376875393E+003	2.8672032E-002
3	0	6.685219376148962E+003	2.7660461E-002
3	0	6.745219375422530E+003	2.4912044E-002
3	0	6.805219374696098E+003	2.4892958E-002
3	0	6.865219373969667E+003	2.7965842E-002
3	0	6.925219373243235E+003	2.5427373E-002
3	0	6.985219372516804E+003	2.6133563E-002
3	0	7.045219371790372E+003	2.6839754E-002
3	0	7.105219371063940E+003	2.6935184E-002
3	0	7.165219370337509E+003	2.8805636E-002
3	0	7.225219369611077E+003	2.7927669E-002
3	0	7.285219368884646E+003	2.8786549E-002
3	0	7.345219368158214E+003	2.7870411E-002
3	0	7.405219367431782E+003	2.6572546E-002
3	0	7.465219366705351E+003	2.8175790E-002
3	0	7.525219365978919E+003	2.8290307E-002
3	0	7.585219365252487E+003	2.8194876E-002
3	0	7.645219364526056E+003	2.4797527E-002
3	0	7.705219363799624E+003	2.7660461E-002
3	0	7.765219363073193E+003	2.7297823E-002
3	0	7.825219362346761E+003	2.6400771E-002
3	0	7.885219361620329E+003	2.8519342E-002
3	0	7.945219360893898E+003	2.7870411E-002
3	0	8.005219360167466E+003	2.8175790E-002
3	0	8.065219359441035E+003	2.8710205E-002
3	0	8.125219358714603E+003	2.6095390E-002
3	0	8.185219357988171E+003	2.5121992E-002
3	0	8.245219357261725E+003	2.4778441E-002
3	0	8.305219356535294E+003	2.5541890E-002
3	0	8.365219355808862E+003	2.8977411E-002
3	0	8.425219355082430E+003	2.6362598E-002
3	0	8.485219354355999E+003	2.8729292E-002
3	0	8.545219353629567E+003	2.8901067E-002
3	0	8.605219352903136E+003	2.7221479E-002
3	0	8.665219352176704E+003	2.4950217E-002
3	0	8.725171351450874E+003	2.8061273E-002