EC-Lab ASCII FILE
Nb header lines : 57                          

Chronopotentiometry

Run on channel : 1 (SN 5304)
User : 
Electrode connection : standard
Ewe ctrl range : min = -10.00 V, max = 10.00 V
Ewe,I filtering : 50 kHz
Safety Limits :
	Do not start on E overload
Channel : Grounded
Acquisition started on : 03/02/2021 16:17:59
Technique started on : 03/02/2021 16:23:27
Saved on :
	File : Batch_1_1_20210210_CP_100mA_-3.33V_02_CP_C01.mpr
	Directory : C:\EmpaDaten\Alessandro\2021_03_02_spAg_Porex_01\
	Host : 10.1.1.100
Device : SP-240 (SN 0200)
Address : USB
EC-Lab for windows v11.33 (software)
Internet server v11.32 (firmware)
Command interpretor v11.33 (firmware)
Electrode material : 
Initial state : 
Electrolyte : 
Comments : 
Cable : standard
Reference electrode : SCE Saturated Calomel Electrode (0.241 V)
Electrode surface area : 0.001 cmï¿½
Characteristic mass : 0.001 g
Equivalent Weight : 0.000 g/eq.
Density : 0.000 g/cm3
Record Ece
Text export
   Mode : Standard
   Time format : Elapsed
Cycle Definition : Charge/Discharge alternance
Is                  -100.000            
unit Is             mA                  
vs.                 <None>              
ts (h:m:s)          0:02:0.0000         
EM (V)              pass                
dQM                 3.333               
unit dQM            mA.h                
record              <Ewe>               
dEs (mV)            0.00                
dts (s)             1.0000              
E range min (V)     -10.000             
E range max (V)     10.000              
I Range             1 A                 
Bandwidth           8                   
goto Ns'            0                   
nc cycles           0                   

mode	ox/red	error	control changes	Ns changes	counter inc.	Ns	time/s	control/mA	<Ewe>/V	I/mA	dQ/C	(Q-Qo)/C	half cycle	Q charge/discharge/mA.h	I Range	<Ece>/V	Q discharge/mA.h	Q charge/mA.h	Capacity/mA.h	Efficiency/%	cycle number	P/W	Ewe-Ece/V	
1	0	0	0	0	0	0	3.283641917048226E+002	-1.0000000E+002	-3.2463198E+000	-9.9888000E+001	0.0000000E+000	0.0000000E+000	0	0.000000000000000E+000	37	5.3998947E+000	0.000000000000000E+000	0.000000000000000E+000	0.000000000000000E+000	0.0000000E+000	0.000000000000000E+000	3.2426840E-001	-8.6462145E+000
1	0	0	0	0	0	0	3.293641916795605E+002	-1.0000000E+002	-3.4493880E+000	-9.9914726E+001	-9.9904254E-002	-9.9904254E-002	0	-2.775118149397108E-002	37	5.2019615E+000	2.775118149397108E-002	0.000000000000000E+000	2.775118149397108E-002	0.0000000E+000	0.000000000000000E+000	3.4464467E-001	-8.6513500E+000
1	0	0	0	0	0	0	3.303641916542983E+002	-1.0000000E+002	-3.4547317E+000	-9.9926186E+001	-1.9981298E-001	-1.9981298E-001	0	-5.550360520553589E-002	37	5.2063842E+000	5.550360520553589E-002	0.000000000000000E+000	5.550360520553589E-002	0.0000000E+000	0.000000000000000E+000	3.4521815E-001	-8.6611156E+000
1	0	0	0	0	0	0	3.313641916290362E+002	-1.0000000E+002	-3.4495246E+000	-9.9930000E+001	-2.9972556E-001	-2.9972556E-001	0	-8.325710465113322E-002	37	5.2057495E+000	8.325710465113322E-002	0.000000000000000E+000	8.325710465113322E-002	0.0000000E+000	0.000000000000000E+000	3.4471101E-001	-8.6552744E+000
1	0	0	0	0	0	0	3.323641916037741E+002	-1.0000000E+002	0.0000000E+000	-9.9895638E+001	-3.9964107E-001	-3.9964107E-001	0	-1.110114083328247E-001	37	5.2075920E+000	1.110114083328247E-001	0.000000000000000E+000	1.110114083328247E-001	0.0000000E+000	0.000000000000000E+000	3.4418195E-001	-8.6530075E+000
1	0	0	0	0	0	0	3.333641915785120E+002	-1.0000000E+002	0.0000000E+000	-9.9914726E+001	-4.9955469E-001	-4.9955469E-001	0	-1.387651904886034E-001	37	5.2094250E+000	1.387651904886034E-001	0.000000000000000E+000	1.387651904886034E-001	0.0000000E+000	0.000000000000000E+000	3.4419352E-001	-8.6542978E+000
1	0	0	0	0	0	0	3.343641915532498E+002	-1.0000000E+002	0.0000000E+000	-9.9922371E+001	-5.9946352E-001	-5.9946352E-001	0	-1.665176404830085E-001	37	5.2083721E+000	1.665176404830085E-001	0.000000000000000E+000	1.665176404830085E-001	0.0000000E+000	0.000000000000000E+000	3.4397969E-001	-8.6508408E+000
1	0	0	0	0	0	0	3.353641915279877E+002	-1.0000000E+002	0.0000000E+000	-9.9880371E+001	-6.9936740E-001	-6.9936740E-001	0	-1.942687303610908E-001	37	5.2007418E+000	1.942687303610908E-001	0.000000000000000E+000	1.942687303610908E-001	0.0000000E+000	0.000000000000000E+000	3.4400895E-001	-8.6449518E+000
1	0	0	0	0	0	0	3.363641915027256E+002	-1.0000000E+002	0.0000000E+000	-9.9910912E+001	-7.9926962E-001	-7.9926962E-001	0	-2.220193387968275E-001	37	5.2055569E+000	2.220193387968275E-001	0.000000000000000E+000	2.220193387968275E-001	0.0000000E+000	0.000000000000000E+000	3.4389910E-001	-8.6476145E+000
1	0	0	0	0	0	0	3.373641914774635E+002	-1.0000000E+002	0.0000000E+000	-9.9914726E+001	-8.9916754E-001	-8.9916754E-001	0	-2.497687658534580E-001	37	5.2093329E+000	2.497687658534580E-001	0.000000000000000E+000	2.497687658534580E-001	0.0000000E+000	0.000000000000000E+000	3.4411603E-001	-8.6534300E+000
1	0	0	0	0	0	0	3.383641914522013E+002	-1.0000000E+002	0.0000000E+000	-9.9880371E+001	-9.9905992E-001	-9.9905992E-001	0	-2.775166463779873E-001	37	5.2104669E+000	2.775166463779873E-001	0.000000000000000E+000	2.775166463779873E-001	0.0000000E+000	0.000000000000000E+000	3.4421542E-001	-8.6567440E+000
1	0	0	0	0	0	0	3.393641914269392E+002	-1.0000000E+002	0.0000000E+000	-9.9865105E+001	-1.0989496E+000	-1.0989496E+000	0	-3.052637612554762E-001	37	5.2061186E+000	3.052637612554762E-001	0.000000000000000E+000	3.052637612554762E-001	0.0000000E+000	0.000000000000000E+000	3.4407663E-001	-8.6515331E+000
1	0	0	0	0	0	0	3.403641914016771E+002	-1.0000000E+002	0.0000000E+000	-9.9872734E+001	-1.1988429E+000	-1.1988429E+000	0	-3.330119162199232E-001	37	5.2093763E+000	3.330119162199232E-001	0.000000000000000E+000	3.330119162199232E-001	0.0000000E+000	0.000000000000000E+000	3.4364954E-001	-8.6502504E+000
1	0	0	0	0	0	0	3.413641913764150E+002	-1.0000000E+002	0.0000000E+000	-9.9888000E+001	-1.2987392E+000	-1.2987392E+000	0	-3.607609017287360E-001	37	5.2118874E+000	3.607609017287360E-001	0.000000000000000E+000	3.607609017287360E-001	0.0000000E+000	0.000000000000000E+000	3.4410390E-001	-8.6567850E+000
1	0	0	0	0	0	0	3.423641913511528E+002	-1.0000000E+002	0.0000000E+000	-9.9895638E+001	-1.3986408E+000	-1.3986408E+000	0	-3.885113148108588E-001	37	5.2119303E+000	3.885113148108588E-001	0.000000000000000E+000	3.885113148108588E-001	0.0000000E+000	0.000000000000000E+000	3.4413520E-001	-8.6568775E+000
1	0	0	0	0	0	0	3.433641913258907E+002	-1.0000000E+002	0.0000000E+000	-9.9933815E+001	-1.4985436E+000	-1.4985436E+000	0	-4.162621073544820E-001	37	5.2119150E+000	4.162621073544820E-001	0.000000000000000E+000	4.162621073544820E-001	0.0000000E+000	0.000000000000000E+000	3.4375277E-001	-8.6517191E+000
1	0	0	0	0	0	0	3.443641913006286E+002	-1.0000000E+002	0.0000000E+000	-9.9907097E+001	-1.5984495E+000	-1.5984495E+000	0	-4.440137440194024E-001	37	5.2131715E+000	4.440137440194024E-001	0.000000000000000E+000	4.440137440194024E-001	0.0000000E+000	0.000000000000000E+000	3.4361121E-001	-8.6524792E+000
1	0	0	0	0	0	0	3.453641912753665E+002	-1.0000000E+002	0.0000000E+000	-9.9914734E+001	-1.6983522E+000	-1.6983522E+000	0	-4.717645062332153E-001	37	5.2145572E+000	4.717645062332153E-001	0.000000000000000E+000	4.717645062332153E-001	0.0000000E+000	0.000000000000000E+000	3.4362772E-001	-8.6537666E+000
1	0	0	0	0	0	0	3.463641912501043E+002	-1.0000000E+002	0.0000000E+000	-9.9914726E+001	-1.7982504E+000	-1.7982504E+000	0	-4.995139980108473E-001	37	5.2142935E+000	4.995139980108473E-001	0.000000000000000E+000	4.995139980108473E-001	0.0000000E+000	0.000000000000000E+000	3.4412146E-001	-8.6584454E+000
1	0	0	0	0	0	0	3.473641912248422E+002	-1.0000000E+002	0.0000000E+000	-9.9903282E+001	-1.8981434E+000	-1.8981434E+000	0	-5.272620721571181E-001	37	5.2145257E+000	5.272620721571181E-001	0.000000000000000E+000	5.272620721571181E-001	0.0000000E+000	0.000000000000000E+000	3.4392411E-001	-8.6570969E+000
1	0	0	0	0	0	0	3.483641911995801E+002	-1.0000000E+002	0.0000000E+000	-9.9876549E+001	-1.9980444E+000	-1.9980444E+000	0	-5.550123105087280E-001	37	5.2163143E+000	5.550123105087280E-001	0.000000000000000E+000	5.550123105087280E-001	0.0000000E+000	0.000000000000000E+000	3.4343177E-001	-8.6548767E+000
1	0	0	0	0	0	0	3.493641911743180E+002	-1.0000000E+002	0.0000000E+000	-9.9872734E+001	-2.0979459E+000	-2.0979459E+000	0	-5.827627596367730E-001	37	5.2152071E+000	5.827627596367730E-001	0.000000000000000E+000	5.827627596367730E-001	0.0000000E+000	0.000000000000000E+000	3.4346110E-001	-8.6541948E+000
1	0	0	0	0	0	0	3.503641911490558E+002	-1.0000000E+002	0.0000000E+000	-9.9903282E+001	-2.1978555E+000	-2.1978555E+000	0	-6.105154259859721E-001	37	5.2127080E+000	6.105154259859721E-001	0.000000000000000E+000	6.105154259859721E-001	0.0000000E+000	0.000000000000000E+000	3.4348696E-001	-8.6509027E+000
1	0	0	0	0	0	0	3.513641911237937E+002	-1.0000000E+002	0.0000000E+000	-9.9918549E+001	-2.2977595E+000	-2.2977595E+000	0	-6.382665680427552E-001	37	5.2129855E+000	6.382665680427552E-001	0.000000000000000E+000	6.382665680427552E-001	0.0000000E+000	0.000000000000000E+000	3.4364912E-001	-8.6522779E+000
1	0	0	0	0	0	0	3.523641910985316E+002	-1.0000000E+002	0.0000000E+000	-9.9907097E+001	-2.3976703E+000	-2.3976703E+000	0	-6.660195054478115E-001	37	5.2106352E+000	6.660195054478115E-001	0.000000000000000E+000	6.660195054478115E-001	0.0000000E+000	0.000000000000000E+000	3.4399751E-001	-8.6538086E+000
1	0	0	0	0	0	0	3.533641910732695E+002	-1.0000000E+002	0.0000000E+000	-9.9910912E+001	-2.4975834E+000	-2.4975834E+000	0	-6.937731733127170E-001	37	5.2016768E+000	6.937731733127170E-001	0.000000000000000E+000	6.937731733127170E-001	0.0000000E+000	0.000000000000000E+000	3.4473854E-001	-8.6521358E+000
1	0	0	0	0	0	0	3.543641910480073E+002	-1.0000000E+002	0.0000000E+000	-9.9910912E+001	-2.5974948E+000	-2.5974948E+000	0	-7.215263495220609E-001	37	5.0496030E+000	7.215263495220609E-001	0.000000000000000E+000	7.215263495220609E-001	0.0000000E+000	0.000000000000000E+000	3.4392282E-001	-8.4918976E+000
1	0	0	0	0	0	0	3.553641910227452E+002	-1.0000000E+002	0.0000000E+000	-9.9907097E+001	-2.6974106E+000	-2.6974106E+000	0	-7.492806935060289E-001	37	5.0500040E+000	7.492806935060289E-001	0.000000000000000E+000	7.492806935060289E-001	0.0000000E+000	0.000000000000000E+000	3.4377009E-001	-8.4909019E+000
1	0	0	0	0	0	0	3.563641909974831E+002	-1.0000000E+002	0.0000000E+000	-9.9937637E+001	-2.7973275E+000	-2.7973275E+000	0	-7.770354122301737E-001	37	5.0506678E+000	7.770354122301737E-001	0.000000000000000E+000	7.770354122301737E-001	0.0000000E+000	0.000000000000000E+000	3.4396061E-001	-8.4924202E+000
1	0	0	0	0	0	0	3.573641909722210E+002	-1.0000000E+002	0.0000000E+000	-9.9929993E+001	-2.8972435E+000	-2.8972435E+000	0	-8.047898845117357E-001	37	5.0524311E+000	8.047898845117357E-001	0.000000000000000E+000	8.047898845117357E-001	0.0000000E+000	0.000000000000000E+000	3.4352127E-001	-8.4900503E+000
1	0	0	0	0	0	0	3.583641909469588E+002	-1.0000000E+002	0.0000000E+000	-9.9926178E+001	-2.9971647E+000	-2.9971647E+000	0	-8.325457864434984E-001	37	5.0550995E+000	8.325457864434984E-001	0.000000000000000E+000	8.325457864434984E-001	0.0000000E+000	0.000000000000000E+000	3.4364745E-001	-8.4941130E+000
1	0	0	0	0	0	0	3.593641909216967E+002	-1.0000000E+002	0.0000000E+000	-9.9922363E+001	-3.0970790E+000	-3.0970790E+000	0	-8.602997140858968E-001	37	5.0569544E+000	8.602997140858968E-001	0.000000000000000E+000	8.602997140858968E-001	0.0000000E+000	0.000000000000000E+000	3.4357318E-001	-8.4953556E+000
1	0	0	0	0	0	0	3.603641908964346E+002	-1.0000000E+002	0.0000000E+000	-9.9914726E+001	-3.1969888E+000	-3.1969888E+000	0	-8.880524183951484E-001	37	5.0575480E+000	8.880524183951484E-001	0.000000000000000E+000	8.880524183951484E-001	0.0000000E+000	0.000000000000000E+000	3.4383351E-001	-8.4988174E+000
1	0	0	0	0	0	0	3.613641908711725E+002	-1.0000000E+002	0.0000000E+000	-9.9933815E+001	-3.2968974E+000	-3.2968974E+000	0	-9.158048136952718E-001	37	5.0603018E+000	9.158048136952718E-001	0.000000000000000E+000	9.158048136952718E-001	0.0000000E+000	0.000000000000000E+000	3.4429869E-001	-8.5055695E+000
1	0	0	0	0	0	0	3.623641908459103E+002	-1.0000000E+002	0.0000000E+000	-9.9922363E+001	-3.3968096E+000	-3.3968096E+000	0	-9.435581871376038E-001	37	5.0619249E+000	9.435581871376038E-001	0.000000000000000E+000	9.435581871376038E-001	0.0000000E+000	0.000000000000000E+000	3.4466723E-001	-8.5112753E+000
1	0	0	0	0	0	0	3.633641908206482E+002	-1.0000000E+002	0.0000000E+000	-9.9849831E+001	-3.4967263E+000	-3.4967263E+000	0	-9.713128430862427E-001	37	5.0645061E+000	9.713128430862427E-001	0.000000000000000E+000	9.713128430862427E-001	0.0000000E+000	0.000000000000000E+000	3.4406602E-001	-8.5103407E+000
1	0	0	0	0	0	0	3.643641907953861E+002	-1.0000000E+002	0.0000000E+000	-9.9868912E+001	-3.5966353E+000	-3.5966353E+000	0	-9.990654031634860E-001	37	5.0654802E+000	9.990654031634860E-001	0.000000000000000E+000	9.990654031634860E-001	0.0000000E+000	0.000000000000000E+000	3.4318253E-001	-8.5018101E+000
1	0	0	0	0	0	0	3.653641907701240E+002	-1.0000000E+002	0.0000000E+000	-9.9899460E+001	-3.6965468E+000	-3.6965468E+000	0	-1.026818521881103E+000	37	5.0661006E+000	1.026818521881103E+000	0.000000000000000E+000	1.026818521881103E+000	0.0000000E+000	0.000000000000000E+000	3.4322596E-001	-8.5018139E+000
1	0	0	0	0	0	0	3.663641907448618E+002	-1.0000000E+002	0.0000000E+000	-9.9941452E+001	-3.7964544E+000	-3.7964544E+000	0	-1.054570649523841E+000	37	5.0661030E+000	1.054570649523841E+000	0.000000000000000E+000	1.054570649523841E+000	0.0000000E+000	0.000000000000000E+000	3.4328780E-001	-8.5009918E+000
1	0	0	0	0	0	0	3.673641907195997E+002	-1.0000000E+002	0.0000000E+000	-9.9888000E+001	-3.8963587E+000	-3.8963587E+000	0	-1.082321873215993E+000	37	5.0676627E+000	1.082321873215993E+000	0.000000000000000E+000	1.082321873215993E+000	0.0000000E+000	0.000000000000000E+000	3.4332827E-001	-8.5047951E+000
1	0	0	0	0	0	0	3.683641906943376E+002	-1.0000000E+002	0.0000000E+000	-9.9872734E+001	-3.9962699E+000	-3.9962699E+000	0	-1.110075004255507E+000	37	5.0712729E+000	1.110075004255507E+000	0.000000000000000E+000	1.110075004255507E+000	0.0000000E+000	0.000000000000000E+000	3.4376419E-001	-8.5132952E+000
1	0	0	0	0	0	0	3.693641906690755E+002	-1.0000000E+002	0.0000000E+000	-9.9930000E+001	-4.0961890E+000	-4.0961890E+000	0	-1.137830324270037E+000	37	5.0726452E+000	1.137830324270037E+000	0.000000000000000E+000	1.137830324270037E+000	0.0000000E+000	0.000000000000000E+000	3.4352338E-001	-8.5102854E+000
1	0	0	0	0	0	0	3.703641906438133E+002	-1.0000000E+002	0.0000000E+000	-9.9933815E+001	-4.1960998E+000	-4.1960998E+000	0	-1.165583255496979E+000	37	5.0762210E+000	1.165583255496979E+000	0.000000000000000E+000	1.165583255496979E+000	0.0000000E+000	0.000000000000000E+000	3.4353599E-001	-8.5138559E+000
1	0	0	0	0	0	0	3.713641906185512E+002	-1.0000000E+002	0.0000000E+000	-9.9922363E+001	-4.2960100E+000	-4.2960100E+000	0	-1.193336074542152E+000	37	5.0763583E+000	1.193336074542152E+000	0.000000000000000E+000	1.193336074542152E+000	0.0000000E+000	0.000000000000000E+000	3.4356201E-001	-8.5146475E+000
1	0	0	0	0	0	0	3.723641905932891E+002	-1.0000000E+002	0.0000000E+000	-9.9861282E+001	-4.3959184E+000	-4.3959184E+000	0	-1.221088482768589E+000	37	5.0780773E+000	1.221088482768589E+000	0.000000000000000E+000	1.221088482768589E+000	0.0000000E+000	0.000000000000000E+000	3.4310544E-001	-8.5138979E+000
1	0	0	0	0	0	0	3.733641905680270E+002	-1.0000000E+002	0.0000000E+000	-9.9933815E+001	-4.4958267E+000	-4.4958267E+000	0	-1.248840737029606E+000	37	5.0789647E+000	1.248840737029606E+000	0.000000000000000E+000	1.248840737029606E+000	0.0000000E+000	0.000000000000000E+000	3.4347585E-001	-8.5159979E+000
1	0	0	0	0	0	0	3.743641905427648E+002	-1.0000000E+002	0.0000000E+000	-9.9933815E+001	-4.5957336E+000	-4.5957336E+000	0	-1.276592726820628E+000	37	5.0817628E+000	1.276592726820628E+000	0.000000000000000E+000	1.276592726820628E+000	0.0000000E+000	0.000000000000000E+000	3.4349024E-001	-8.5189400E+000
1	0	0	0	0	0	0	3.753641905175027E+002	-1.0000000E+002	0.0000000E+000	-9.9872734E+001	-4.6956401E+000	-4.6956401E+000	0	-1.304344461896261E+000	37	5.0839186E+000	1.304344461896261E+000	0.000000000000000E+000	1.304344461896261E+000	0.0000000E+000	0.000000000000000E+000	3.4380034E-001	-8.5263033E+000
1	0	0	0	0	0	0	3.763641904922406E+002	-1.0000000E+002	0.0000000E+000	-9.9891815E+001	-4.7955503E+000	-4.7955503E+000	0	-1.332097269727071E+000	37	5.0864105E+000	1.332097269727071E+000	0.000000000000000E+000	1.332097269727071E+000	0.0000000E+000	0.000000000000000E+000	3.4403601E-001	-8.5304966E+000
1	0	0	0	0	0	0	3.773641904669785E+002	-1.0000000E+002	0.0000000E+000	-9.9895638E+001	-4.8954630E+000	-4.8954630E+000	0	-1.359850860357073E+000	37	5.0841479E+000	1.359850860357073E+000	0.000000000000000E+000	1.359850860357073E+000	0.0000000E+000	0.000000000000000E+000	3.4452176E-001	-8.5329647E+000
1	0	0	0	0	0	0	3.783641904417163E+002	-1.0000000E+002	0.0000000E+000	-9.9952904E+001	-4.9953780E+000	-4.9953780E+000	0	-1.387604978466882E+000	37	5.0820785E+000	1.387604978466882E+000	0.000000000000000E+000	1.387604978466882E+000	0.0000000E+000	0.000000000000000E+000	3.4537193E-001	-8.5374250E+000
1	0	0	0	0	0	0	3.793641904164542E+002	-1.0000000E+002	0.0000000E+000	-9.9918549E+001	-5.0952930E+000	-5.0952930E+000	0	-1.415359220636156E+000	37	5.0848064E+000	1.415359220636156E+000	0.000000000000000E+000	1.415359220636156E+000	0.0000000E+000	0.000000000000000E+000	3.4510392E-001	-8.5386591E+000
1	0	0	0	0	0	0	3.803641903911921E+002	-1.0000000E+002	0.0000000E+000	-9.9903282E+001	-5.1952024E+000	-5.1952024E+000	0	-1.443111704814911E+000	37	5.0821433E+000	1.443111704814911E+000	0.000000000000000E+000	1.443111704814911E+000	0.0000000E+000	0.000000000000000E+000	3.4465826E-001	-8.5320625E+000
1	0	0	0	0	0	0	3.813641903659300E+002	-1.0000000E+002	0.0000000E+000	-9.9907097E+001	-5.2951069E+000	-5.2951069E+000	0	-1.470863082711114E+000	37	5.0761518E+000	1.470863082711114E+000	0.000000000000000E+000	1.470863082711114E+000	0.0000000E+000	0.000000000000000E+000	3.4449822E-001	-8.5243378E+000
1	0	0	0	0	0	0	3.823641903406678E+002	-1.0000000E+002	0.0000000E+000	-9.9861282E+001	-5.3950133E+000	-5.3950133E+000	0	-1.498614829852210E+000	37	5.0757327E+000	1.498614829852210E+000	0.000000000000000E+000	1.498614829852210E+000	0.0000000E+000	0.000000000000000E+000	3.4444326E-001	-8.5249500E+000
1	0	0	0	0	0	0	3.833641903154057E+002	-1.0000000E+002	0.0000000E+000	-9.9903282E+001	-5.4949217E+000	-5.4949217E+000	0	-1.526367118923187E+000	37	5.0784178E+000	1.526367118923187E+000	0.000000000000000E+000	1.526367118923187E+000	0.0000000E+000	0.000000000000000E+000	3.4378019E-001	-8.5195484E+000
1	0	0	0	0	0	0	3.843641902901436E+002	-1.0000000E+002	0.0000000E+000	-9.9903275E+001	-5.5948296E+000	-5.5948296E+000	0	-1.554119263108995E+000	37	5.0805416E+000	1.554119263108995E+000	0.000000000000000E+000	1.554119263108995E+000	0.0000000E+000	0.000000000000000E+000	3.4378105E-001	-8.5216808E+000
1	0	0	0	0	0	0	3.853641902648815E+002	-1.0000000E+002	0.0000000E+000	-9.9865097E+001	-5.6947331E+000	-5.6947331E+000	0	-1.581870287871467E+000	37	5.0826092E+000	1.581870287871467E+000	0.000000000000000E+000	1.581870287871467E+000	0.0000000E+000	0.000000000000000E+000	3.4392011E-001	-8.5264559E+000
1	0	0	0	0	0	0	3.863641902396193E+002	-1.0000000E+002	0.0000000E+000	-9.9895638E+001	-5.7946439E+000	-5.7946439E+000	0	-1.609623335754395E+000	37	5.0838733E+000	1.609623335754395E+000	0.000000000000000E+000	1.609623335754395E+000	0.0000000E+000	0.000000000000000E+000	3.4366843E-001	-8.5241480E+000
1	0	0	0	0	0	0	3.873641902143572E+002	-1.0000000E+002	0.0000000E+000	-9.9914726E+001	-5.8945560E+000	-5.8945560E+000	0	-1.637376659590827E+000	37	5.0860333E+000	1.637376659590827E+000	0.000000000000000E+000	1.637376659590827E+000	0.0000000E+000	0.000000000000000E+000	3.4372824E-001	-8.5262489E+000
1	0	0	0	0	0	0	3.883641901890951E+002	-1.0000000E+002	0.0000000E+000	-9.9899460E+001	-5.9944749E+000	-5.9944749E+000	0	-1.665131903457218E+000	37	5.0885749E+000	1.665131903457218E+000	0.000000000000000E+000	1.665131903457218E+000	0.0000000E+000	0.000000000000000E+000	3.4360462E-001	-8.5280790E+000
1	0	0	0	0	0	0	3.893641901638330E+002	-1.0000000E+002	0.0000000E+000	-9.9918549E+001	-6.0943947E+000	-6.0943947E+000	0	-1.692887402682410E+000	37	5.0918436E+000	1.692887402682410E+000	0.000000000000000E+000	1.692887402682410E+000	0.0000000E+000	0.000000000000000E+000	3.4394002E-001	-8.5340481E+000
1	0	0	0	0	0	0	3.903641901385708E+002	-1.0000000E+002	0.0000000E+000	-9.9907097E+001	-6.1943069E+000	-6.1943069E+000	0	-1.720640737330543E+000	37	5.0933781E+000	1.720640737330543E+000	0.000000000000000E+000	1.720640737330543E+000	0.0000000E+000	0.000000000000000E+000	3.4329554E-001	-8.5295258E+000
1	0	0	0	0	0	0	3.913641901133087E+002	-1.0000000E+002	0.0000000E+000	-9.9895638E+001	-6.2942123E+000	-6.2942123E+000	0	-1.748392314578162E+000	37	5.0937591E+000	1.748392314578162E+000	0.000000000000000E+000	1.748392314578162E+000	0.0000000E+000	0.000000000000000E+000	3.4272537E-001	-8.5245934E+000
1	0	0	0	0	0	0	3.923641900880466E+002	-1.0000000E+002	0.0000000E+000	-9.9910912E+001	-6.3941221E+000	-6.3941221E+000	0	-1.776144979679955E+000	37	5.0937896E+000	1.776144979679955E+000	0.000000000000000E+000	1.776144979679955E+000	0.0000000E+000	0.000000000000000E+000	3.4294418E-001	-8.5262890E+000
1	0	0	0	0	0	0	3.933641900627845E+002	-1.0000000E+002	0.0000000E+000	-9.9914734E+001	-6.4940352E+000	-6.4940352E+000	0	-1.803898696935866E+000	37	5.0950556E+000	1.803898696935866E+000	0.000000000000000E+000	1.803898696935866E+000	0.0000000E+000	0.000000000000000E+000	3.4302598E-001	-8.5282431E+000
1	0	0	0	0	0	0	3.943641900375223E+002	-1.0000000E+002	0.0000000E+000	-9.9872734E+001	-6.5939407E+000	-6.5939407E+000	0	-1.831650221831004E+000	37	5.0956402E+000	1.831650221831004E+000	0.000000000000000E+000	1.831650221831004E+000	0.0000000E+000	0.000000000000000E+000	3.4253123E-001	-8.5253172E+000
1	0	0	0	0	0	0	3.953641900122602E+002	-1.0000000E+002	0.0000000E+000	-9.9922363E+001	-6.6938443E+000	-6.6938443E+000	0	-1.859401259320577E+000	37	5.0976605E+000	1.859401259320577E+000	0.000000000000000E+000	1.859401259320577E+000	0.0000000E+000	0.000000000000000E+000	3.4290850E-001	-8.5294094E+000
1	0	0	0	0	0	0	3.963641899869981E+002	-1.0000000E+002	0.0000000E+000	-9.9956718E+001	-6.7937493E+000	-6.7937493E+000	0	-1.887152638493432E+000	37	5.0995665E+000	1.887152638493432E+000	0.000000000000000E+000	1.887152638493432E+000	0.0000000E+000	0.000000000000000E+000	3.4285647E-001	-8.5296154E+000
1	0	0	0	0	0	0	3.973641899617360E+002	-1.0000000E+002	0.0000000E+000	-9.9918549E+001	-6.8936663E+000	-6.8936663E+000	0	-1.914907316495683E+000	37	5.1008811E+000	1.914907316495683E+000	0.000000000000000E+000	1.914907316495683E+000	0.0000000E+000	0.000000000000000E+000	3.4277928E-001	-8.5314684E+000
1	0	0	0	0	0	0	3.983641899364738E+002	-1.0000000E+002	0.0000000E+000	-9.9899460E+001	-6.9935856E+000	-6.9935856E+000	0	-1.942662618243747E+000	37	5.1024580E+000	1.942662618243747E+000	0.000000000000000E+000	1.942662618243747E+000	0.0000000E+000	0.000000000000000E+000	3.4293199E-001	-8.5352287E+000
1	0	0	0	0	0	0	3.993641899112117E+002	-1.0000000E+002	0.0000000E+000	-9.9910912E+001	-7.0935035E+000	-7.0935035E+000	0	-1.970417692419688E+000	37	5.1039777E+000	1.970417692419688E+000	0.000000000000000E+000	1.970417692419688E+000	0.0000000E+000	0.000000000000000E+000	3.4277129E-001	-8.5347471E+000
1	0	0	0	0	0	0	4.003641898859496E+002	-1.0000000E+002	0.0000000E+000	-9.9884186E+001	-7.1934247E+000	-7.1934247E+000	0	-1.998173532868279E+000	37	5.1049452E+000	1.998173532868279E+000	0.000000000000000E+000	1.998173532868279E+000	0.0000000E+000	0.000000000000000E+000	3.4236649E-001	-8.5325794E+000
1	0	0	0	0	0	0	4.013641898606875E+002	-1.0000000E+002	0.0000000E+000	-9.9952896E+001	-7.2933459E+000	-7.2933459E+000	0	-2.025929391136593E+000	37	5.1077638E+000	2.025929391136593E+000	0.000000000000000E+000	2.025929391136593E+000	0.0000000E+000	0.000000000000000E+000	3.4267777E-001	-8.5361567E+000
1	0	0	0	0	0	0	4.023641898354254E+002	-1.0000000E+002	0.0000000E+000	-9.9899460E+001	-7.3932743E+000	-7.3932743E+000	0	-2.053687298586951E+000	37	5.1102724E+000	2.053687298586951E+000	0.000000000000000E+000	2.053687298586951E+000	0.0000000E+000	0.000000000000000E+000	3.4248656E-001	-8.5385847E+000
1	0	0	0	0	0	0	4.033641898101632E+002	-1.0000000E+002	0.0000000E+000	-9.9949081E+001	-7.4932079E+000	-7.4932079E+000	0	-2.081446652235243E+000	37	5.1092262E+000	2.081446652235243E+000	0.000000000000000E+000	2.081446652235243E+000	0.0000000E+000	0.000000000000000E+000	3.4305969E-001	-8.5415707E+000
1	0	0	0	0	0	0	4.043641897849011E+002	-1.0000000E+002	0.0000000E+000	-9.9945267E+001	-7.5931458E+000	-7.5931458E+000	0	-2.109207123995039E+000	37	5.1107640E+000	2.109207123995039E+000	0.000000000000000E+000	2.109207123995039E+000	0.0000000E+000	0.000000000000000E+000	3.4288684E-001	-8.5415096E+000
1	0	0	0	0	0	0	4.053641897596390E+002	-1.0000000E+002	0.0000000E+000	-9.9922371E+001	-7.6930857E+000	-7.6930857E+000	0	-2.136968234111786E+000	37	5.1126194E+000	2.136968234111786E+000	0.000000000000000E+000	2.136968234111786E+000	0.0000000E+000	0.000000000000000E+000	3.4316644E-001	-8.5469494E+000
1	0	0	0	0	0	0	4.063641897343769E+002	-1.0000000E+002	0.0000000E+000	-9.9941452E+001	-7.7930250E+000	-7.7930250E+000	0	-2.164729156772613E+000	37	5.1156678E+000	2.164729156772613E+000	0.000000000000000E+000	2.164729156772613E+000	0.0000000E+000	0.000000000000000E+000	3.4261492E-001	-8.5438242E+000
1	0	0	0	0	0	0	4.073641897091147E+002	-1.0000000E+002	0.0000000E+000	-9.9941444E+001	-7.8929577E+000	-7.8929577E+000	0	-2.192488267395867E+000	37	5.1191669E+000	2.192488267395867E+000	0.000000000000000E+000	2.192488267395867E+000	0.0000000E+000	0.000000000000000E+000	3.4297007E-001	-8.5508766E+000
1	0	0	0	0	0	0	4.083641896838526E+002	-1.0000000E+002	0.0000000E+000	-9.9884186E+001	-7.9928927E+000	-7.9928927E+000	0	-2.220248007879045E+000	37	5.1220737E+000	2.220248007879045E+000	0.000000000000000E+000	2.220248007879045E+000	0.0000000E+000	0.000000000000000E+000	3.4275451E-001	-8.5535927E+000
1	0	0	0	0	0	0	4.093641896585905E+002	-1.0000000E+002	0.0000000E+000	-9.9899467E+001	-8.0928297E+000	-8.0928297E+000	0	-2.248008354723612E+000	37	5.1235042E+000	2.248008354723612E+000	0.000000000000000E+000	2.248008354723612E+000	0.0000000E+000	0.000000000000000E+000	3.4244004E-001	-8.5513506E+000
1	0	0	0	0	0	0	4.103641896333284E+002	-1.0000000E+002	0.0000000E+000	-9.9933815E+001	-8.1927605E+000	-8.1927605E+000	0	-2.275766676806980E+000	37	5.1184449E+000	2.275766676806980E+000	0.000000000000000E+000	2.275766676806980E+000	0.0000000E+000	0.000000000000000E+000	3.4252378E-001	-8.5459509E+000
1	0	0	0	0	0	0	4.113641896080662E+002	-1.0000000E+002	0.0000000E+000	-9.9910912E+001	-8.2926807E+000	-8.2926807E+000	0	-2.303522485888587E+000	37	5.1208467E+000	2.303522485888587E+000	0.000000000000000E+000	2.303522485888587E+000	0.0000000E+000	0.000000000000000E+000	3.4238169E-001	-8.5477161E+000
1	0	0	0	0	0	0	4.123641895828041E+002	-1.0000000E+002	0.0000000E+000	-9.9910912E+001	-8.3926001E+000	-8.3926001E+000	0	-2.331277785966661E+000	37	5.1232691E+000	2.331277785966661E+000	0.000000000000000E+000	2.331277785966661E+000	0.0000000E+000	0.000000000000000E+000	3.4258801E-001	-8.5522041E+000
1	0	0	0	0	0	0	4.133641895575420E+002	-1.0000000E+002	0.0000000E+000	-9.9907097E+001	-8.4925194E+000	-8.4925194E+000	0	-2.359033208402846E+000	37	5.1260610E+000	2.359033208402846E+000	0.000000000000000E+000	2.359033208402846E+000	0.0000000E+000	0.000000000000000E+000	3.4251863E-001	-8.5544319E+000
1	0	0	0	0	0	0	4.143641895322799E+002	-1.0000000E+002	0.0000000E+000	-9.9880363E+001	-8.5924406E+000	-8.5924406E+000	0	-2.386789065389845E+000	37	5.1152530E+000	2.386789065389845E+000	0.000000000000000E+000	2.386789065389845E+000	0.0000000E+000	0.000000000000000E+000	3.4247681E-001	-8.5441236E+000
1	0	0	0	0	0	0	4.153641895070177E+002	-1.0000000E+002	0.0000000E+000	-9.9929993E+001	-8.6923656E+000	-8.6923656E+000	0	-2.414546087599013E+000	37	5.1016984E+000	2.414546087599013E+000	0.000000000000000E+000	2.414546087599013E+000	0.0000000E+000	0.000000000000000E+000	3.4277529E-001	-8.5318527E+000
1	0	0	0	0	0	0	4.163641894817556E+002	-1.0000000E+002	0.0000000E+000	-9.9949081E+001	-8.7922916E+000	-8.7922916E+000	0	-2.442303247873942E+000	37	5.1028075E+000	2.442303247873942E+000	0.000000000000000E+000	2.442303247873942E+000	0.0000000E+000	0.000000000000000E+000	3.4288377E-001	-8.5333920E+000
1	0	0	0	0	0	0	4.173641894564935E+002	-1.0000000E+002	0.0000000E+000	-9.9914734E+001	-8.8922243E+000	-8.8922243E+000	0	-2.470062373097738E+000	37	5.1057067E+000	2.470062373097738E+000	0.000000000000000E+000	2.470062373097738E+000	0.0000000E+000	0.000000000000000E+000	3.4266311E-001	-8.5352621E+000
1	0	0	0	0	0	0	4.183641894312314E+002	-1.0000000E+002	0.0000000E+000	-9.9891815E+001	-8.9921494E+000	-8.9921494E+000	0	-2.497819213530646E+000	37	5.1074729E+000	2.497819213530646E+000	0.000000000000000E+000	2.497819213530646E+000	0.0000000E+000	0.000000000000000E+000	3.4254923E-001	-8.5366745E+000
1	0	0	0	0	0	0	4.193641894059692E+002	-1.0000000E+002	0.0000000E+000	-9.9922363E+001	-9.0920601E+000	-9.0920601E+000	0	-2.525572377636380E+000	37	5.1104956E+000	2.525572377636380E+000	0.000000000000000E+000	2.525572377636380E+000	0.0000000E+000	0.000000000000000E+000	3.4243596E-001	-8.5375156E+000
1	0	0	0	0	0	0	4.203641893807071E+002	-1.0000000E+002	0.0000000E+000	-9.9929993E+001	-9.1919622E+000	-9.1919622E+000	0	-2.553322926265717E+000	37	5.1064701E+000	2.553322926265717E+000	0.000000000000000E+000	2.553322926265717E+000	0.0000000E+000	0.000000000000000E+000	3.4251809E-001	-8.5340509E+000
1	0	0	0	0	0	0	4.213641893554450E+002	-1.0000000E+002	0.0000000E+000	-9.9922363E+001	-9.2918663E+000	-9.2918663E+000	0	-2.581074053928799E+000	37	5.1093574E+000	2.581074053928799E+000	0.000000000000000E+000	2.581074053928799E+000	0.0000000E+000	0.000000000000000E+000	3.4258321E-001	-8.5378513E+000
1	0	0	0	0	0	0	4.223641893301829E+002	-1.0000000E+002	0.0000000E+000	-9.9922363E+001	-9.3917732E+000	-9.3917732E+000	0	-2.608826014002482E+000	37	5.1117921E+000	2.608826014002482E+000	0.000000000000000E+000	2.608826014002482E+000	0.0000000E+000	0.000000000000000E+000	3.4267688E-001	-8.5412235E+000
1	0	0	0	0	0	0	4.233641893049207E+002	-1.0000000E+002	0.0000000E+000	-9.9891815E+001	-9.4916773E+000	-9.4916773E+000	0	-2.636577087985145E+000	37	5.1135101E+000	2.636577087985145E+000	0.000000000000000E+000	2.636577087985145E+000	0.0000000E+000	0.000000000000000E+000	3.4277490E-001	-8.5449715E+000
1	0	0	0	0	0	0	4.243641892796586E+002	-1.0000000E+002	0.0000000E+000	-9.9945267E+001	-9.5915775E+000	-9.5915775E+000	0	-2.664326963006337E+000	37	5.1144924E+000	2.664326963006337E+000	0.000000000000000E+000	2.664326963006337E+000	0.0000000E+000	0.000000000000000E+000	3.4242418E-001	-8.5406094E+000
1	0	0	0	0	0	0	4.253641892543965E+002	-1.0000000E+002	0.0000000E+000	-9.9918549E+001	-9.6914768E+000	-9.6914768E+000	0	-2.692076982874128E+000	37	5.1118608E+000	2.692076982874128E+000	0.000000000000000E+000	2.692076982874128E+000	0.0000000E+000	0.000000000000000E+000	3.4214807E-001	-8.5361309E+000
1	0	0	0	0	0	0	4.263641892291344E+002	-1.0000000E+002	0.0000000E+000	-9.9918541E+001	-9.7913857E+000	-9.7913857E+000	0	-2.719829432666355E+000	37	5.1147637E+000	2.719829432666355E+000	0.000000000000000E+000	2.719829432666355E+000	0.0000000E+000	0.000000000000000E+000	3.4210378E-001	-8.5385904E+000
1	0	0	0	0	0	0	4.273641892038722E+002	-1.0000000E+002	0.0000000E+000	-9.9933815E+001	-9.8912935E+000	-9.8912935E+000	0	-2.747581664242215E+000	37	5.1157727E+000	2.747581664242215E+000	0.000000000000000E+000	2.747581664242215E+000	0.0000000E+000	0.000000000000000E+000	3.4218746E-001	-8.5399132E+000
1	0	0	0	0	0	0	4.283641891786101E+002	-1.0000000E+002	0.0000000E+000	-9.9891815E+001	-9.9912062E+000	-9.9912062E+000	0	-2.775335021373325E+000	37	5.1181931E+000	2.775335021373325E+000	0.000000000000000E+000	2.775335021373325E+000	0.0000000E+000	0.000000000000000E+000	3.4200713E-001	-8.5419683E+000
1	0	0	0	0	0	0	4.293641891533480E+002	-1.0000000E+002	0.0000000E+000	-9.9933815E+001	-1.0091117E+001	-1.0091117E+001	0	-2.803088035987430E+000	37	5.1207500E+000	2.803088035987430E+000	0.000000000000000E+000	2.803088035987430E+000	0.0000000E+000	0.000000000000000E+000	3.4208927E-001	-8.5439081E+000
1	0	0	0	0	0	0	4.303641891280859E+002	-1.0000000E+002	0.0000000E+000	-9.9941452E+001	-1.0191027E+001	-1.0191027E+001	0	-2.830840878557841E+000	37	5.1219244E+000	2.830840878557841E+000	0.000000000000000E+000	2.830840878557841E+000	0.0000000E+000	0.000000000000000E+000	3.4229460E-001	-8.5468760E+000
1	0	0	0	0	0	0	4.313641891028237E+002	-1.0000000E+002	0.0000000E+000	-9.9926186E+001	-1.0290936E+001	-1.0290936E+001	0	-2.858593162323422E+000	37	5.1152592E+000	2.858593162323422E+000	0.000000000000000E+000	2.858593162323422E+000	0.0000000E+000	0.000000000000000E+000	3.4208030E-001	-8.5385895E+000
1	0	0	0	0	0	0	4.323641890775616E+002	-1.0000000E+002	0.0000000E+000	-9.9891823E+001	-1.0390841E+001	-1.0390841E+001	0	-2.886344726666345E+000	37	5.1134663E+000	2.886344726666345E+000	0.000000000000000E+000	2.886344726666345E+000	0.0000000E+000	0.000000000000000E+000	3.4202152E-001	-8.5373859E+000
1	0	0	0	0	0	0	4.333641890522995E+002	-1.0000000E+002	0.0000000E+000	-9.9937637E+001	-1.0490748E+001	-1.0490748E+001	0	-2.914096902469211E+000	37	5.1169448E+000	2.914096902469211E+000	0.000000000000000E+000	2.914096902469211E+000	0.0000000E+000	0.000000000000000E+000	3.4213910E-001	-8.5404701E+000
1	0	0	0	0	0	0	4.343641890270374E+002	-1.0000000E+002	0.0000000E+000	-9.9941452E+001	-1.0590652E+001	-1.0590652E+001	0	-2.941847889897240E+000	37	5.1196389E+000	2.941847889897240E+000	0.000000000000000E+000	2.941847889897240E+000	0.0000000E+000	0.000000000000000E+000	3.4218591E-001	-8.5435028E+000
1	0	0	0	0	0	0	4.353641890017752E+002	-1.0000000E+002	0.0000000E+000	-9.9914726E+001	-1.0690556E+001	-1.0690556E+001	0	-2.969598834067027E+000	37	5.1215973E+000	2.969598834067027E+000	0.000000000000000E+000	2.969598834067027E+000	0.0000000E+000	0.000000000000000E+000	3.4196311E-001	-8.5441475E+000
1	0	0	0	0	0	0	4.363641889765131E+002	-1.0000000E+002	0.0000000E+000	-9.9888000E+001	-1.0790462E+001	-1.0790462E+001	0	-2.997350637005700E+000	37	5.1271911E+000	2.997350637005700E+000	0.000000000000000E+000	2.997350637005700E+000	0.0000000E+000	0.000000000000000E+000	3.4193650E-001	-8.5503902E+000
1	0	0	0	0	0	0	4.373641889512510E+002	-1.0000000E+002	0.0000000E+000	-9.9910912E+001	-1.0890369E+001	-1.0890369E+001	0	-3.025102737079620E+000	37	5.1278977E+000	3.025102737079620E+000	0.000000000000000E+000	3.025102737079620E+000	0.0000000E+000	0.000000000000000E+000	3.4203175E-001	-8.5512648E+000
1	0	0	0	0	0	0	4.383641889259889E+002	-1.0000000E+002	0.0000000E+000	-9.9956718E+001	-1.0990280E+001	-1.0990280E+001	0	-3.052855659213596E+000	37	5.1263409E+000	3.052855659213596E+000	0.000000000000000E+000	3.052855659213596E+000	0.0000000E+000	0.000000000000000E+000	3.4245554E-001	-8.5523796E+000
1	0	0	0	0	0	0	4.393641889007267E+002	-1.0000000E+002	0.0000000E+000	-9.9933815E+001	-1.1090189E+001	-1.1090189E+001	0	-3.080607953156789E+000	37	5.1280422E+000	3.080607953156789E+000	0.000000000000000E+000	3.080607953156789E+000	0.0000000E+000	0.000000000000000E+000	3.4216109E-001	-8.5519190E+000
1	0	0	0	0	0	0	4.403641888754646E+002	-1.0000000E+002	0.0000000E+000	-9.9930000E+001	-1.1190093E+001	-1.1190093E+001	0	-3.108359123846266E+000	37	5.1265783E+000	3.108359123846266E+000	0.000000000000000E+000	3.108359123846266E+000	0.0000000E+000	0.000000000000000E+000	3.4193605E-001	-8.5483341E+000
1	0	0	0	0	0	0	4.413641888502025E+002	-1.0000000E+002	0.0000000E+000	-9.9891815E+001	-1.1289995E+001	-1.1289995E+001	0	-3.136109854216682E+000	37	5.1284914E+000	3.136109854216682E+000	0.000000000000000E+000	3.136109854216682E+000	0.0000000E+000	0.000000000000000E+000	3.4169450E-001	-8.5491371E+000
1	0	0	0	0	0	0	4.423641888249404E+002	-1.0000000E+002	0.0000000E+000	-9.9895638E+001	-1.1389891E+001	-1.1389891E+001	0	-3.163858457081265E+000	37	5.1305842E+000	3.163858457081265E+000	0.000000000000000E+000	3.163858457081265E+000	0.0000000E+000	0.000000000000000E+000	3.4196049E-001	-8.5537615E+000
1	0	0	0	0	0	0	4.433641887996782E+002	-1.0000000E+002	0.0000000E+000	-9.9861282E+001	-1.1489790E+001	-1.1489790E+001	0	-3.191608224774678E+000	37	5.1312408E+000	3.191608224774678E+000	0.000000000000000E+000	3.191608224774678E+000	0.0000000E+000	0.000000000000000E+000	3.4165528E-001	-8.5525398E+000
1	0	0	0	0	0	0	4.443641887744161E+002	-1.0000000E+002	0.0000000E+000	-9.9895638E+001	-1.1589685E+001	-1.1589685E+001	0	-3.219356962995317E+000	37	5.1336904E+000	3.219356962995317E+000	0.000000000000000E+000	3.219356962995317E+000	0.0000000E+000	0.000000000000000E+000	3.4196615E-001	-8.5569248E+000
1	0	0	0	0	0	0	4.453641887491540E+002	-1.0000000E+002	0.0000000E+000	-9.9903282E+001	-1.1689578E+001	-1.1689578E+001	0	-3.247104922435337E+000	37	5.1324735E+000	3.247104922435337E+000	0.000000000000000E+000	3.247104922435337E+000	0.0000000E+000	0.000000000000000E+000	3.4215125E-001	-8.5572987E+000
1	0	0	0	0	0	0	4.463641887238919E+002	-1.0000000E+002	0.0000000E+000	-9.9903275E+001	-1.1789474E+001	-1.1789474E+001	0	-3.274853984491136E+000	37	5.1357946E+000	3.274853984491136E+000	0.000000000000000E+000	3.274853984491136E+000	0.0000000E+000	0.000000000000000E+000	3.4186751E-001	-8.5577793E+000
1	0	0	0	0	0	0	4.473641886986297E+002	-1.0000000E+002	0.0000000E+000	-9.9903275E+001	-1.1889377E+001	-1.1889377E+001	0	-3.302604719153510E+000	37	5.1366982E+000	3.302604719153510E+000	0.000000000000000E+000	3.302604719153510E+000	0.0000000E+000	0.000000000000000E+000	3.4168985E-001	-8.5569048E+000
1	0	0	0	0	0	0	4.473645886986196E+002	-1.0000000E+002	0.0000000E+000	-9.9918549E+001	-1.1889417E+001	-1.1889417E+001	0	-3.302615821850671E+000	37	4.9597797E+000	3.302615821850671E+000	0.000000000000000E+000	3.302615821850671E+000	0.0000000E+000	0.000000000000000E+000	3.5915065E-001	-8.5542145E+000