EC-Lab ASCII FILE
Nb header lines : 59                          

Chronopotentiometry

Run on channel : 1 (SN 5304)
User : 
Electrode connection : standard
Potential control : Ewe
Ewe ctrl range : min = -10.00 V, max = 10.00 V
Ewe,I filtering : 50 kHz
Safety Limits :
	Do not start on E overload
Channel : Grounded
Acquisition started on : 03/02/2021 16:17:59.000
Loaded Setting File : NONE
Saved on :
	File : Batch_1_1_20210210_CP_100mA_-3.33V_02_CP_C01.mpr
	Directory : C:\EmpaDaten\Alessandro\2021_03_02_spAg_Porex_01\
	Host : 10.1.1.100
Device : SP-240 (SN 0200)
Address : USB
EC-Lab for windows v11.33 (software)
Internet server v11.32 (firmware)
Command interpretor v11.33 (firmware)
Electrode material : 
Initial state : 
Electrolyte : 
Comments : 
Cable : standard
Reference electrode : SCE Saturated Calomel Electrode (0.241 V)
Electrode surface area : 0.001 cm²
Characteristic mass : 0.001 g
Equivalent Weight : 0.000 g/eq.
Density : 0.000 g/cm3
Volume (V) : 0.000 m³
Record Ece
Text export
   Mode : Standard
   Time format : Elapsed
Cycle Definition : Charge/Discharge alternance
Is                  -100.000            
unit Is             mA                  
vs.                 <None>              
ts (h:m:s)          0:02:0.0000         
EM (V)              pass                
dQM                 3.333               
unit dQM            mA.h                
record              <Ewe>               
dEs (mV)            0.00                
dts (s)             1.0000              
E range min (V)     -10.000             
E range max (V)     10.000              
I Range             1 A                 
Bandwidth           8                   
goto Ns'            0                   
nc cycles           0                   

mode	ox/red	error	control changes	Ns changes	counter inc.	Ns	time/s	control/mA	<Ewe>/V	I/mA	dQ/C	(Q-Qo)/C	half cycle	Q charge/discharge/mA.h	I Range	<Ece>/V	Energy charge/W.h	Energy discharge/W.h	Capacitance charge/µF	Capacitance discharge/µF	Q discharge/mA.h	Q charge/mA.h	Capacity/mA.h	Efficiency/%	cycle number	P/W	Ewe-Ece/V	
1	0	0	0	0	0	0	3.283641917048226E+002	-1.0000000E+002	-3.2463198E+000	-9.9888000E+001	0.0000000E+000	0.0000000E+000	0	0.000000000000000E+000	37	5.3998947E+000	0.000000000000000E+000	0.000000000000000E+000	0.000000000000000E+000	0.000000000000000E+000	0.000000000000000E+000	0.000000000000000E+000	0.000000000000000E+000	0.0000000E+000	0.000000000000000E+000	3.2426840E-001	-8.6462145E+000
1	0	0	0	0	0	0	3.293641916795605E+002	-1.0000000E+002	-3.4493880E+000	-9.9914726E+001	-9.9904254E-002	-9.9904254E-002	0	-2.775118168857363E-002	37	5.2019615E+000	0.000000000000000E+000	9.572459385697247E-005	0.000000000000000E+000	0.000000000000000E+000	2.775118168857363E-002	0.000000000000000E+000	2.775118168857363E-002	0.0000000E+000	0.000000000000000E+000	3.4464467E-001	-8.6513500E+000
1	0	0	0	0	0	0	3.303641916542983E+002	-1.0000000E+002	-3.4547317E+000	-9.9926186E+001	-1.9981298E-001	-1.9981298E-001	0	-5.550360514058007E-002	37	5.2063842E+000	0.000000000000000E+000	1.916017709862761E-004	0.000000000000000E+000	3.739242292419578E+007	5.550360514058007E-002	0.000000000000000E+000	5.550360514058007E-002	0.0000000E+000	0.000000000000000E+000	3.4521815E-001	-8.6611156E+000
1	0	0	0	0	0	0	3.313641916290362E+002	-1.0000000E+002	-3.4495246E+000	-9.9930000E+001	-2.9972556E-001	-2.9972556E-001	0	-8.325710064835018E-002	37	5.2057495E+000	0.000000000000000E+000	2.873381376152384E-004	0.000000000000000E+000	2.193961823734729E+009	8.325710064835018E-002	0.000000000000000E+000	8.325710064835018E-002	0.0000000E+000	0.000000000000000E+000	3.4471101E-001	-8.6552744E+000
1	0	0	0	0	0	0	3.323641916037741E+002	-1.0000000E+002	-3.4454153E+000	-9.9895638E+001	-3.9964107E-001	-3.9964107E-001	0	-1.110114074415631E-001	37	5.2075920E+000	0.000000000000000E+000	3.829632497270996E-004	0.000000000000000E+000	1.005950984216528E+008	1.110114074415631E-001	0.000000000000000E+000	1.110114074415631E-001	0.0000000E+000	0.000000000000000E+000	3.4418195E-001	-8.6530075E+000
1	0	0	0	0	0	0	3.333641915785120E+002	-1.0000000E+002	-3.4448726E+000	-9.9914726E+001	-4.9955469E-001	-4.9955469E-001	0	-1.387651926941342E-001	37	5.2094250E+000	0.000000000000000E+000	4.785715045818061E-004	0.000000000000000E+000	1.106333095728391E+008	1.387651926941342E-001	0.000000000000000E+000	1.387651926941342E-001	0.0000000E+000	0.000000000000000E+000	3.4419352E-001	-8.6542978E+000
1	0	0	0	0	0	0	3.343641915532498E+002	-1.0000000E+002	-3.4424691E+000	-9.9922371E+001	-5.9946352E-001	-5.9946352E-001	0	-1.665176451206207E-001	37	5.2083721E+000	0.000000000000000E+000	5.741084650649666E-004	0.000000000000000E+000	8.664135940730530E+007	1.665176451206207E-001	0.000000000000000E+000	1.665176451206207E-001	0.0000000E+000	0.000000000000000E+000	3.4397969E-001	-8.6508408E+000
1	0	0	0	0	0	0	3.353641915279877E+002	-1.0000000E+002	-3.4442098E+000	-9.9880371E+001	-6.9936740E-001	-6.9936740E-001	0	-1.942687233289083E-001	37	5.2007418E+000	0.000000000000000E+000	6.696890009810207E-004	0.000000000000000E+000	1.350596021916295E+008	1.942687233289083E-001	0.000000000000000E+000	1.942687233289083E-001	0.0000000E+000	0.000000000000000E+000	3.4400895E-001	-8.6449518E+000
1	0	0	0	0	0	0	3.363641915027256E+002	-1.0000000E+002	-3.4420574E+000	-9.9910912E+001	-7.9926962E-001	-7.9926962E-001	0	-2.220193379455143E-001	37	5.2055569E+000	0.000000000000000E+000	7.652082085757616E-004	0.000000000000000E+000	1.090311168569291E+008	2.220193379455143E-001	0.000000000000000E+000	2.220193379455143E-001	0.0000000E+000	0.000000000000000E+000	3.4389910E-001	-8.6476145E+000
1	0	0	0	0	0	0	3.373641914774635E+002	-1.0000000E+002	-3.4440973E+000	-9.9914726E+001	-8.9916754E-001	-8.9916754E-001	0	-2.497687604692247E-001	37	5.2093329E+000	0.000000000000000E+000	8.607799192251826E-004	0.000000000000000E+000	1.699509711144158E+008	2.497687604692247E-001	0.000000000000000E+000	2.497687604692247E-001	0.0000000E+000	0.000000000000000E+000	3.4411603E-001	-8.6534300E+000
1	0	0	0	0	0	0	3.383641914522013E+002	-1.0000000E+002	-3.4462769E+000	-9.9880371E+001	-9.9905992E-001	-9.9905992E-001	0	-2.775166432062785E-001	37	5.2104669E+000	0.000000000000000E+000	9.564068066132741E-004	0.000000000000000E+000	3.211250670549468E+008	2.775166432062785E-001	0.000000000000000E+000	2.775166432062785E-001	0.0000000E+000	0.000000000000000E+000	3.4421542E-001	-8.6567440E+000
1	0	0	0	0	0	0	3.393641914269392E+002	-1.0000000E+002	-3.4454141E+000	-9.9865105E+001	-1.0989496E+000	-1.0989496E+000	0	-3.052637643284268E-001	37	5.2061186E+000	0.000000000000000E+000	1.052007128027262E-003	0.000000000000000E+000	2.765375869930406E+008	3.052637643284268E-001	0.000000000000000E+000	3.052637643284268E-001	0.0000000E+000	0.000000000000000E+000	3.4407663E-001	-8.6515331E+000
1	0	0	0	0	0	0	3.403641914016771E+002	-1.0000000E+002	-3.4408743E+000	-9.9872734E+001	-1.1988429E+000	-1.1988429E+000	0	-3.330119119750129E-001	37	5.2093763E+000	0.000000000000000E+000	1.147485017195598E-003	0.000000000000000E+000	1.408135624072363E+008	3.330119119750129E-001	0.000000000000000E+000	3.330119119750129E-001	0.0000000E+000	0.000000000000000E+000	3.4364954E-001	-8.6502504E+000
1	0	0	0	0	0	0	3.413641913764150E+002	-1.0000000E+002	-3.4448974E+000	-9.9888000E+001	-1.2987392E+000	-1.2987392E+000	0	-3.607608874638875E-001	37	5.2118874E+000	0.000000000000000E+000	1.243077391077665E-003	0.000000000000000E+000	2.892119458455004E+008	3.607608874638875E-001	0.000000000000000E+000	3.607608874638875E-001	0.0000000E+000	0.000000000000000E+000	3.4410390E-001	-8.6567850E+000
1	0	0	0	0	0	0	3.423641913511528E+002	-1.0000000E+002	-3.4449472E+000	-9.9895638E+001	-1.3986408E+000	-1.3986408E+000	0	-3.885113199551900E-001	37	5.2119303E+000	0.000000000000000E+000	1.338676166973331E-003	0.000000000000000E+000	3.149535326962311E+008	3.885113199551900E-001	0.000000000000000E+000	3.885113199551900E-001	0.0000000E+000	0.000000000000000E+000	3.4413520E-001	-8.6568775E+000
1	0	0	0	0	0	0	3.433641913258907E+002	-1.0000000E+002	-3.4398043E+000	-9.9933815E+001	-1.4985436E+000	-1.4985436E+000	0	-4.162621166970994E-001	37	5.2119150E+000	0.000000000000000E+000	1.434133477366574E-003	0.000000000000000E+000	1.563635967858298E+008	4.162621166970994E-001	0.000000000000000E+000	4.162621166970994E-001	0.0000000E+000	0.000000000000000E+000	3.4375277E-001	-8.6517191E+000
1	0	0	0	0	0	0	3.443641913006286E+002	-1.0000000E+002	-3.4393075E+000	-9.9907097E+001	-1.5984495E+000	-1.5984495E+000	0	-4.440137412812974E-001	37	5.2131715E+000	0.000000000000000E+000	1.529579846583248E-003	0.000000000000000E+000	1.585672760814550E+008	4.440137412812974E-001	0.000000000000000E+000	4.440137412812974E-001	0.0000000E+000	0.000000000000000E+000	3.4361121E-001	-8.6524792E+000
1	0	0	0	0	0	0	3.453641912753665E+002	-1.0000000E+002	-3.4392097E+000	-9.9914734E+001	-1.6983522E+000	-1.6983522E+000	0	-4.717645049095154E-001	37	5.2145572E+000	0.000000000000000E+000	1.625020542025575E-003	0.000000000000000E+000	1.668596542596800E+008	4.717645049095154E-001	0.000000000000000E+000	4.717645049095154E-001	0.0000000E+000	0.000000000000000E+000	3.4362772E-001	-8.6537666E+000
1	0	0	0	0	0	0	3.463641912501043E+002	-1.0000000E+002	-3.4441516E+000	-9.9914726E+001	-1.7982504E+000	-1.7982504E+000	0	-4.995140102174547E-001	37	5.2142935E+000	0.000000000000000E+000	1.720594046239393E-003	0.000000000000000E+000	3.434143331967400E+008	4.995140102174547E-001	0.000000000000000E+000	4.995140102174547E-001	0.0000000E+000	0.000000000000000E+000	3.4412146E-001	-8.6584454E+000
1	0	0	0	0	0	0	3.473641912248422E+002	-1.0000000E+002	-3.4425707E+000	-9.9903282E+001	-1.8981434E+000	-1.8981434E+000	0	-5.272620585229661E-001	37	5.2145257E+000	0.000000000000000E+000	1.816118663939102E-003	0.000000000000000E+000	2.784287088200322E+008	5.272620585229661E-001	0.000000000000000E+000	5.272620585229661E-001	0.0000000E+000	0.000000000000000E+000	3.4392411E-001	-8.6570969E+000
1	0	0	0	0	0	0	3.483641911995801E+002	-1.0000000E+002	-3.4385626E+000	-9.9876549E+001	-1.9980444E+000	-1.9980444E+000	0	-5.550123254458109E-001	37	5.2163143E+000	0.000000000000000E+000	1.911539694797117E-003	0.000000000000000E+000	1.845701024116287E+008	5.550123254458109E-001	0.000000000000000E+000	5.550123254458109E-001	0.0000000E+000	0.000000000000000E+000	3.4343177E-001	-8.6548767E+000
1	0	0	0	0	0	0	3.493641911743180E+002	-1.0000000E+002	-3.4389875E+000	-9.9872734E+001	-2.0979459E+000	-2.0979459E+000	0	-5.827627579371134E-001	37	5.2152071E+000	0.000000000000000E+000	2.006973085074340E-003	0.000000000000000E+000	2.017152190358297E+008	5.827627579371134E-001	0.000000000000000E+000	5.827627579371134E-001	0.0000000E+000	0.000000000000000E+000	3.4346110E-001	-8.6541948E+000
1	0	0	0	0	0	0	3.503641911490558E+002	-1.0000000E+002	-3.4381950E+000	-9.9903282E+001	-2.1978555E+000	-2.1978555E+000	0	-6.105154090457492E-001	37	5.2127080E+000	0.000000000000000E+000	2.102392111079656E-003	0.000000000000000E+000	1.963591709800413E+008	6.105154090457492E-001	0.000000000000000E+000	6.105154090457492E-001	0.0000000E+000	0.000000000000000E+000	3.4348696E-001	-8.6509027E+000
1	0	0	0	0	0	0	3.513641911237937E+002	-1.0000000E+002	-3.4392927E+000	-9.9918549E+001	-2.2977595E+000	-2.2977595E+000	0	-6.382665369245741E-001	37	5.2129855E+000	0.000000000000000E+000	2.197836361758002E-003	0.000000000000000E+000	2.276055546371301E+008	6.382665369245741E-001	0.000000000000000E+000	6.382665369245741E-001	0.0000000E+000	0.000000000000000E+000	3.4364912E-001	-8.6522779E+000
1	0	0	0	0	0	0	3.523641910985316E+002	-1.0000000E+002	-3.4431739E+000	-9.9907097E+001	-2.3976703E+000	-2.3976703E+000	0	-6.660195191701254E-001	37	5.2106352E+000	0.000000000000000E+000	2.293394705466340E-003	0.000000000000000E+000	3.858409300184162E+008	6.660195191701254E-001	0.000000000000000E+000	6.660195191701254E-001	0.0000000E+000	0.000000000000000E+000	3.4399751E-001	-8.6538086E+000
1	0	0	0	0	0	0	3.533641910732695E+002	-1.0000000E+002	-3.4504595E+000	-9.9910912E+001	-2.4975834E+000	-2.4975834E+000	0	-6.937731636895074E-001	37	5.2016768E+000	0.000000000000000E+000	2.389157531310720E-003	0.000000000000000E+000	2.331024477080552E+009	6.937731636895074E-001	0.000000000000000E+000	6.937731636895074E-001	0.0000000E+000	0.000000000000000E+000	3.4473854E-001	-8.6521358E+000
1	0	0	0	0	0	0	3.543641910480073E+002	-1.0000000E+002	-3.4422948E+000	-9.9910912E+001	-2.5974948E+000	-2.5974948E+000	0	-7.215263446172079E-001	37	5.0496030E+000	0.000000000000000E+000	2.484692162701947E-003	0.000000000000000E+000	3.661955228395684E+008	7.215263446172079E-001	0.000000000000000E+000	7.215263446172079E-001	0.0000000E+000	0.000000000000000E+000	3.4392282E-001	-8.4918976E+000
1	0	0	0	0	0	0	3.553641910227452E+002	-1.0000000E+002	-3.4408977E+000	-9.9907097E+001	-2.6974106E+000	-2.6974106E+000	0	-7.492807176378038E-001	37	5.0500040E+000	0.000000000000000E+000	2.580192121081460E-003	0.000000000000000E+000	3.177040801999382E+008	7.492807176378038E-001	0.000000000000000E+000	7.492807176378038E-001	0.0000000E+000	0.000000000000000E+000	3.4377009E-001	-8.4909019E+000
1	0	0	0	0	0	0	3.563641909974831E+002	-1.0000000E+002	-3.4417524E+000	-9.9937637E+001	-2.7973275E+000	-2.7973275E+000	0	-7.770354217953153E-001	37	5.0506678E+000	0.000000000000000E+000	2.675716941664332E-003	0.000000000000000E+000	3.663536501592456E+008	7.770354217953153E-001	0.000000000000000E+000	7.770354217953153E-001	0.0000000E+000	0.000000000000000E+000	3.4396061E-001	-8.4924202E+000
1	0	0	0	0	0	0	3.573641909722210E+002	-1.0000000E+002	-3.4376192E+000	-9.9929993E+001	-2.8972435E+000	-2.8972435E+000	0	-8.047898610432943E-001	37	5.0524311E+000	0.000000000000000E+000	2.771126135166245E-003	0.000000000000000E+000	2.461796523641668E+008	8.047898610432943E-001	0.000000000000000E+000	8.047898610432943E-001	0.0000000E+000	0.000000000000000E+000	3.4352127E-001	-8.4900503E+000
1	0	0	0	0	0	0	3.583641909469588E+002	-1.0000000E+002	-3.4390132E+000	-9.9926178E+001	-2.9971647E+000	-2.9971647E+000	0	-8.325457572937012E-001	37	5.0550995E+000	0.000000000000000E+000	2.866579029935000E-003	0.000000000000000E+000	2.888893485005171E+008	8.325457572937012E-001	0.000000000000000E+000	8.325457572937012E-001	0.0000000E+000	0.000000000000000E+000	3.4364745E-001	-8.4941130E+000
1	0	0	0	0	0	0	3.593641909216967E+002	-1.0000000E+002	-3.4384012E+000	-9.9922363E+001	-3.0970790E+000	-3.0970790E+000	0	-8.602997329499986E-001	37	5.0569544E+000	0.000000000000000E+000	2.962008333753327E-003	0.000000000000000E+000	2.818907816501020E+008	8.602997329499986E-001	0.000000000000000E+000	8.602997329499986E-001	0.0000000E+000	0.000000000000000E+000	3.4357318E-001	-8.4953556E+000
1	0	0	0	0	0	0	3.603641908964346E+002	-1.0000000E+002	-3.4412696E+000	-9.9914726E+001	-3.1969888E+000	-3.1969888E+000	0	-8.880524502860175E-001	37	5.0575480E+000	0.000000000000000E+000	3.057512917242538E-003	0.000000000000000E+000	3.937958650259904E+008	8.880524502860175E-001	0.000000000000000E+000	8.880524502860175E-001	0.0000000E+000	0.000000000000000E+000	3.4383351E-001	-8.4988174E+000
1	0	0	0	0	0	0	3.613641908711725E+002	-1.0000000E+002	-3.4452672E+000	-9.9933815E+001	-3.2968974E+000	-3.2968974E+000	0	-9.158048364851210E-001	37	5.0603018E+000	0.000000000000000E+000	3.153127303149085E-003	0.000000000000000E+000	8.000572784077760E+008	9.158048364851210E-001	0.000000000000000E+000	9.158048364851210E-001	0.0000000E+000	0.000000000000000E+000	3.4429869E-001	-8.5055695E+000
1	0	0	0	0	0	0	3.623641908459103E+002	-1.0000000E+002	-3.4493501E+000	-9.9922363E+001	-3.3968096E+000	-3.3968096E+000	0	-9.435582160949707E-001	37	5.0619249E+000	0.000000000000000E+000	3.248858426398900E-003	0.000000000000000E+000	8.960535849056604E+010	9.435582160949707E-001	0.000000000000000E+000	9.435582160949707E-001	0.0000000E+000	0.000000000000000E+000	3.4466723E-001	-8.5112753E+000
1	0	0	0	0	0	0	3.633641908206482E+002	-1.0000000E+002	-3.4458349E+000	-9.9849831E+001	-3.4967263E+000	-3.4967263E+000	0	-9.713128540250990E-001	37	5.0645061E+000	0.000000000000000E+000	3.344496325724498E-003	0.000000000000000E+000	9.841195061397034E+008	9.713128540250990E-001	0.000000000000000E+000	9.713128540250990E-001	0.0000000E+000	0.000000000000000E+000	3.4406602E-001	-8.5103407E+000
1	0	0	0	0	0	0	3.643641907953861E+002	-1.0000000E+002	-3.4363301E+000	-9.9868912E+001	-3.5966353E+000	-3.5966353E+000	0	-9.990653726789687E-001	37	5.0654802E+000	0.000000000000000E+000	3.439863140371449E-003	0.000000000000000E+000	2.754365060526940E+008	9.990653726789687E-001	0.000000000000000E+000	9.990653726789687E-001	0.0000000E+000	0.000000000000000E+000	3.4318253E-001	-8.5018101E+000
1	0	0	0	0	0	0	3.653641907701240E+002	-1.0000000E+002	-3.4357138E+000	-9.9899460E+001	-3.6965468E+000	-3.6965468E+000	0	-1.026818553606669E+000	37	5.0661006E+000	0.000000000000000E+000	3.535215126190694E-003	0.000000000000000E+000	2.703288523904175E+008	1.026818553606669E+000	0.000000000000000E+000	1.026818553606669E+000	0.0000000E+000	0.000000000000000E+000	3.4322596E-001	-8.5018139E+000
1	0	0	0	0	0	0	3.663641907448618E+002	-1.0000000E+002	-3.4348891E+000	-9.9941452E+001	-3.7964544E+000	-3.7964544E+000	0	-1.054570674896240E+000	37	5.0661030E+000	0.000000000000000E+000	3.630540584503465E-003	0.000000000000000E+000	2.618434216368211E+008	1.054570674896240E+000	0.000000000000000E+000	1.054570674896240E+000	0.0000000E+000	0.000000000000000E+000	3.4328780E-001	-8.5009918E+000
1	0	0	0	0	0	0	3.673641907195997E+002	-1.0000000E+002	-3.4371324E+000	-9.9888000E+001	-3.8963587E+000	-3.8963587E+000	0	-1.082321869002448E+000	37	5.0676627E+000	0.000000000000000E+000	3.725925111754343E-003	0.000000000000000E+000	3.179229826472648E+008	1.082321869002448E+000	0.000000000000000E+000	1.082321869002448E+000	0.0000000E+000	0.000000000000000E+000	3.4332827E-001	-8.5047951E+000
1	0	0	0	0	0	0	3.683641906943376E+002	-1.0000000E+002	-3.4420223E+000	-9.9872734E+001	-3.9962699E+000	-3.9962699E+000	0	-1.110074983702765E+000	37	5.0712729E+000	0.000000000000000E+000	3.821451952102500E-003	0.000000000000000E+000	5.425510131417103E+008	1.110074983702765E+000	0.000000000000000E+000	1.110074983702765E+000	0.0000000E+000	0.000000000000000E+000	3.4376419E-001	-8.5132952E+000
1	0	0	0	0	0	0	3.693641906690755E+002	-1.0000000E+002	-3.4376402E+000	-9.9930000E+001	-4.0961890E+000	-4.0961890E+000	0	-1.137830283906725E+000	37	5.0726452E+000	0.000000000000000E+000	3.916864687572601E-003	0.000000000000000E+000	3.486760157486707E+008	1.137830283906725E+000	0.000000000000000E+000	1.137830283906725E+000	0.0000000E+000	0.000000000000000E+000	3.4352338E-001	-8.5102854E+000
1	0	0	0	0	0	0	3.703641906438133E+002	-1.0000000E+002	-3.4376352E+000	-9.9933815E+001	-4.1960998E+000	-4.1960998E+000	0	-1.165583266152276E+000	37	5.0762210E+000	0.000000000000000E+000	4.012269315782362E-003	0.000000000000000E+000	3.570284613043920E+008	1.165583266152276E+000	0.000000000000000E+000	1.165583266152276E+000	0.0000000E+000	0.000000000000000E+000	3.4353599E-001	-8.5138559E+000
1	0	0	0	0	0	0	3.713641906185512E+002	-1.0000000E+002	-3.4382894E+000	-9.9922363E+001	-4.2960100E+000	-4.2960100E+000	0	-1.193336115943061E+000	37	5.0763583E+000	0.000000000000000E+000	4.107691645146473E-003	0.000000000000000E+000	3.870759382182982E+008	1.193336115943061E+000	0.000000000000000E+000	1.193336115943061E+000	0.0000000E+000	0.000000000000000E+000	3.4356201E-001	-8.5146475E+000
1	0	0	0	0	0	0	3.723641905932891E+002	-1.0000000E+002	-3.4358203E+000	-9.9861282E+001	-4.3959184E+000	-4.3959184E+000	0	-1.221088435914781E+000	37	5.0780773E+000	0.000000000000000E+000	4.203043630618309E-003	0.000000000000000E+000	3.239991213734690E+008	1.221088435914781E+000	0.000000000000000E+000	1.221088435914781E+000	0.0000000E+000	0.000000000000000E+000	3.4310544E-001	-8.5138979E+000
1	0	0	0	0	0	0	3.733641905680270E+002	-1.0000000E+002	-3.4370332E+000	-9.9933815E+001	-4.4958267E+000	-4.4958267E+000	0	-1.248840755886502E+000	37	5.0789647E+000	0.000000000000000E+000	4.298429275083795E-003	0.000000000000000E+000	3.638916248552682E+008	1.248840755886502E+000	0.000000000000000E+000	1.248840755886502E+000	0.0000000E+000	0.000000000000000E+000	3.4347585E-001	-8.5159979E+000
1	0	0	0	0	0	0	3.743641905427648E+002	-1.0000000E+002	-3.4371774E+000	-9.9933815E+001	-4.5957336E+000	-4.5957336E+000	0	-1.276592678493924E+000	37	5.0817628E+000	0.000000000000000E+000	4.393817556822246E-003	0.000000000000000E+000	3.763722346968662E+008	1.276592678493924E+000	0.000000000000000E+000	1.276592678493924E+000	0.0000000E+000	0.000000000000000E+000	3.4349024E-001	-8.5189400E+000
1	0	0	0	0	0	0	3.753641905175027E+002	-1.0000000E+002	-3.4423845E+000	-9.9872734E+001	-4.6956401E+000	-4.6956401E+000	0	-1.304344468646579E+000	37	5.0839186E+000	0.000000000000000E+000	4.489349888575651E-003	0.000000000000000E+000	6.704661106382978E+008	1.304344468646579E+000	0.000000000000000E+000	1.304344468646579E+000	0.0000000E+000	0.000000000000000E+000	3.4380034E-001	-8.5263033E+000
1	0	0	0	0	0	0	3.763641904922406E+002	-1.0000000E+002	-3.4440861E+000	-9.9891815E+001	-4.7955503E+000	-4.7955503E+000	0	-1.332097318437364E+000	37	5.0864105E+000	0.000000000000000E+000	4.584933092076918E-003	0.000000000000000E+000	9.044876337800162E+008	1.332097318437364E+000	0.000000000000000E+000	1.332097318437364E+000	0.0000000E+000	0.000000000000000E+000	3.4403601E-001	-8.5304966E+000
1	0	0	0	0	0	0	3.773641904669785E+002	-1.0000000E+002	-3.4488168E+000	-9.9895638E+001	-4.8954630E+000	-4.8954630E+000	0	-1.359850830501980E+000	37	5.0841479E+000	0.000000000000000E+000	4.680649870085933E-003	0.000000000000000E+000	8.569724540901503E+009	1.359850830501980E+000	0.000000000000000E+000	1.359850830501980E+000	0.0000000E+000	0.000000000000000E+000	3.4452176E-001	-8.5329647E+000
1	0	0	0	0	0	0	3.783641904417163E+002	-1.0000000E+002	-3.4553466E+000	-9.9952904E+001	-4.9953780E+000	-4.9953780E+000	0	-1.387605004840427E+000	37	5.0820785E+000	0.000000000000000E+000	4.776550161586909E-003	0.000000000000000E+000	8.383536331626120E+008	1.387605004840427E+000	0.000000000000000E+000	1.387605004840427E+000	0.0000000E+000	0.000000000000000E+000	3.4537193E-001	-8.5374250E+000
1	0	0	0	0	0	0	3.793641904164542E+002	-1.0000000E+002	-3.4538524E+000	-9.9918549E+001	-5.0952930E+000	-5.0952930E+000	0	-1.415359179178874E+000	37	5.0848064E+000	0.000000000000000E+000	4.872408983654439E-003	0.000000000000000E+000	1.141319519359146E+009	1.415359179178874E+000	0.000000000000000E+000	1.415359179178874E+000	0.0000000E+000	0.000000000000000E+000	3.4510392E-001	-8.5386591E+000
1	0	0	0	0	0	0	3.803641903911921E+002	-1.0000000E+002	-3.4499192E+000	-9.9903282E+001	-5.1952024E+000	-5.1952024E+000	0	-1.443111764060126E+000	37	5.0821433E+000	0.000000000000000E+000	4.968153159746008E-003	0.000000000000000E+000	9.780187612208258E+009	1.443111764060126E+000	0.000000000000000E+000	1.443111764060126E+000	0.0000000E+000	0.000000000000000E+000	3.4465826E-001	-8.5320625E+000
1	0	0	0	0	0	0	3.813641903659300E+002	-1.0000000E+002	-3.4481857E+000	-9.9907097E+001	-5.2951069E+000	-5.2951069E+000	0	-1.470863024393718E+000	37	5.0761518E+000	0.000000000000000E+000	5.063844658293988E-003	0.000000000000000E+000	4.403983343248067E+009	1.470863024393718E+000	0.000000000000000E+000	1.470863024393718E+000	0.0000000E+000	0.000000000000000E+000	3.4449822E-001	-8.5243378E+000
1	0	0	0	0	0	0	3.823641903406678E+002	-1.0000000E+002	-3.4492173E+000	-9.9861282E+001	-5.3950133E+000	-5.3950133E+000	0	-1.498614814546373E+000	37	5.0757327E+000	0.000000000000000E+000	5.159566613535338E-003	0.000000000000000E+000	3.160380726256983E+010	1.498614814546373E+000	0.000000000000000E+000	1.498614814546373E+000	0.0000000E+000	0.000000000000000E+000	3.4444326E-001	-8.5249500E+000
1	0	0	0	0	0	0	3.833641903154057E+002	-1.0000000E+002	-3.4411302E+000	-9.9903282E+001	-5.4949217E+000	-5.4949217E+000	0	-1.526367134518094E+000	37	5.0784178E+000	0.000000000000000E+000	5.255065958835669E-003	0.000000000000000E+000	6.654166762905648E+008	1.526367134518094E+000	0.000000000000000E+000	1.526367134518094E+000	0.0000000E+000	0.000000000000000E+000	3.4378019E-001	-8.5195484E+000
1	0	0	0	0	0	0	3.843641902901436E+002	-1.0000000E+002	-3.4411390E+000	-9.9903275E+001	-5.5948296E+000	-5.5948296E+000	0	-1.554119322035048E+000	37	5.0805416E+000	0.000000000000000E+000	5.350565093157481E-003	0.000000000000000E+000	6.782397179109223E+008	1.554119322035048E+000	0.000000000000000E+000	1.554119322035048E+000	0.0000000E+000	0.000000000000000E+000	3.4378105E-001	-8.5216808E+000
1	0	0	0	0	0	0	3.853641902648815E+002	-1.0000000E+002	-3.4438469E+000	-9.9865097E+001	-5.6947331E+000	-5.6947331E+000	0	-1.581870317459106E+000	37	5.0826092E+000	0.000000000000000E+000	5.446135273858171E-003	0.000000000000000E+000	1.027728669162256E+009	1.581870317459106E+000	0.000000000000000E+000	1.581870317459106E+000	0.0000000E+000	0.000000000000000E+000	3.4392011E-001	-8.5264559E+000
1	0	0	0	0	0	0	3.863641902396193E+002	-1.0000000E+002	-3.4402747E+000	-9.9895638E+001	-5.7946439E+000	-5.7946439E+000	0	-1.609623299704658E+000	37	5.0838733E+000	0.000000000000000E+000	5.541613156955140E-003	0.000000000000000E+000	6.358439200502301E+008	1.609623299704658E+000	0.000000000000000E+000	1.609623299704658E+000	0.0000000E+000	0.000000000000000E+000	3.4366843E-001	-8.5241480E+000
1	0	0	0	0	0	0	3.873641902143572E+002	-1.0000000E+002	-3.4402161E+000	-9.9914726E+001	-5.8945560E+000	-5.8945560E+000	0	-1.637376679314507E+000	37	5.0860333E+000	0.000000000000000E+000	5.637090779331811E-003	0.000000000000000E+000	6.426711723420848E+008	1.637376679314507E+000	0.000000000000000E+000	1.637376679314507E+000	0.0000000E+000	0.000000000000000E+000	3.4372824E-001	-8.5262489E+000
1	0	0	0	0	0	0	3.883641901890951E+002	-1.0000000E+002	-3.4395044E+000	-9.9899460E+001	-5.9944749E+000	-5.9944749E+000	0	-1.665131913291083E+000	37	5.0885749E+000	0.000000000000000E+000	5.732555028300792E-003	0.000000000000000E+000	6.065046435894343E+008	1.665131913291083E+000	0.000000000000000E+000	1.665131913291083E+000	0.0000000E+000	0.000000000000000E+000	3.4360462E-001	-8.5280790E+000
1	0	0	0	0	0	0	3.893641901638330E+002	-1.0000000E+002	-3.4422040E+000	-9.9918549E+001	-6.0943947E+000	-6.0943947E+000	0	-1.692887412177192E+000	37	5.0918436E+000	0.000000000000000E+000	5.828095117548739E-003	0.000000000000000E+000	8.483255011283685E+008	1.692887412177192E+000	0.000000000000000E+000	1.692887412177192E+000	0.0000000E+000	0.000000000000000E+000	3.4394002E-001	-8.5340481E+000
1	0	0	0	0	0	0	3.903641901385708E+002	-1.0000000E+002	-3.4361477E+000	-9.9907097E+001	-6.1943069E+000	-6.1943069E+000	0	-1.720640791787042E+000	37	5.0933781E+000	0.000000000000000E+000	5.923459828779804E-003	0.000000000000000E+000	4.678360283790111E+008	1.720640791787042E+000	0.000000000000000E+000	1.720640791787042E+000	0.0000000E+000	0.000000000000000E+000	3.4329554E-001	-8.5295258E+000
1	0	0	0	0	0	0	3.913641901133087E+002	-1.0000000E+002	-3.4308343E+000	-9.9895638E+001	-6.2942123E+000	-6.2942123E+000	0	-1.748392317030165E+000	37	5.0937591E+000	0.000000000000000E+000	6.018670713277110E-003	0.000000000000000E+000	3.392423541506040E+008	1.748392317030165E+000	0.000000000000000E+000	1.748392317030165E+000	0.0000000E+000	0.000000000000000E+000	3.4272537E-001	-8.5245934E+000
1	0	0	0	0	0	0	3.923641900880466E+002	-1.0000000E+002	-3.4324996E+000	-9.9910912E+001	-6.3941221E+000	-6.3941221E+000	0	-1.776145034366184E+000	37	5.0937896E+000	0.000000000000000E+000	6.113931905740184E-003	0.000000000000000E+000	3.786107432766288E+008	1.776145034366184E+000	0.000000000000000E+000	1.776145034366184E+000	0.0000000E+000	0.000000000000000E+000	3.4294418E-001	-8.5262890E+000
1	0	0	0	0	0	0	3.933641900627845E+002	-1.0000000E+002	-3.4331872E+000	-9.9914734E+001	-6.4940352E+000	-6.4940352E+000	0	-1.803898678885566E+000	37	5.0950556E+000	0.000000000000000E+000	6.209215364143098E-003	0.000000000000000E+000	4.008470515518535E+008	1.803898678885566E+000	0.000000000000000E+000	1.803898678885566E+000	0.0000000E+000	0.000000000000000E+000	3.4302598E-001	-8.5282431E+000
1	0	0	0	0	0	0	3.943641900375223E+002	-1.0000000E+002	-3.4296770E+000	-9.9872734E+001	-6.5939407E+000	-6.5939407E+000	0	-1.831650204128689E+000	37	5.0956402E+000	0.000000000000000E+000	6.304394132250288E-003	0.000000000000000E+000	3.345307109853158E+008	1.831650204128689E+000	0.000000000000000E+000	1.831650204128689E+000	0.0000000E+000	0.000000000000000E+000	3.4253123E-001	-8.5253172E+000
1	0	0	0	0	0	0	3.953641900122602E+002	-1.0000000E+002	-3.4317493E+000	-9.9922363E+001	-6.6938443E+000	-6.6938443E+000	0	-1.859401199552748E+000	37	5.0976605E+000	0.000000000000000E+000	6.399628592588598E-003	0.000000000000000E+000	3.794979589629910E+008	1.859401199552748E+000	0.000000000000000E+000	1.859401199552748E+000	0.0000000E+000	0.000000000000000E+000	3.4290850E-001	-8.5294094E+000
1	0	0	0	0	0	0	3.963641899869981E+002	-1.0000000E+002	-3.4300492E+000	-9.9956718E+001	-6.7937493E+000	-6.7937493E+000	0	-1.887152592341105E+000	37	5.0995665E+000	0.000000000000000E+000	6.494817234693482E-003	0.000000000000000E+000	3.513006546422892E+008	1.887152592341105E+000	0.000000000000000E+000	1.887152592341105E+000	0.0000000E+000	0.000000000000000E+000	3.4285647E-001	-8.5296154E+000
1	0	0	0	0	0	0	3.973641899617360E+002	-1.0000000E+002	-3.4305871E+000	-9.9918549E+001	-6.8936663E+000	-6.8936663E+000	0	-1.914907296498616E+000	37	5.1008811E+000	0.000000000000000E+000	6.590032163444382E-003	0.000000000000000E+000	3.666653816401841E+008	1.914907296498616E+000	0.000000000000000E+000	1.914907296498616E+000	0.0000000E+000	0.000000000000000E+000	3.4277928E-001	-8.5314684E+000
1	0	0	0	0	0	0	3.983641899364738E+002	-1.0000000E+002	-3.4327712E+000	-9.9899460E+001	-6.9935856E+000	-6.9935856E+000	0	-1.942662662929959E+000	37	5.1024580E+000	0.000000000000000E+000	6.685309986139156E-003	0.000000000000000E+000	4.208738521579431E+008	1.942662662929959E+000	0.000000000000000E+000	1.942662662929959E+000	0.0000000E+000	0.000000000000000E+000	3.4293199E-001	-8.5352287E+000
1	0	0	0	0	0	0	3.993641899112117E+002	-1.0000000E+002	-3.4307692E+000	-9.9910912E+001	-7.0935035E+000	-7.0935035E+000	0	-1.970417631997003E+000	37	5.1039777E+000	0.000000000000000E+000	6.780530879302690E-003	0.000000000000000E+000	3.809856197098331E+008	1.970417631997003E+000	0.000000000000000E+000	1.970417631997003E+000	0.0000000E+000	0.000000000000000E+000	3.4277129E-001	-8.5347471E+000
1	0	0	0	0	0	0	4.003641898859496E+002	-1.0000000E+002	-3.4276345E+000	-9.9884186E+001	-7.1934247E+000	-7.1934247E+000	0	-1.998173528247409E+000	37	5.1049452E+000	0.000000000000000E+000	6.875667946247698E-003	0.000000000000000E+000	3.306782038776427E+008	1.998173528247409E+000	0.000000000000000E+000	1.998173528247409E+000	0.0000000E+000	0.000000000000000E+000	3.4236649E-001	-8.5325794E+000
1	0	0	0	0	0	0	4.013641898606875E+002	-1.0000000E+002	-3.4283926E+000	-9.9952896E+001	-7.2933459E+000	-7.2933459E+000	0	-2.025929424497816E+000	37	5.1077638E+000	0.000000000000000E+000	6.970826056910587E-003	0.000000000000000E+000	3.473786352641918E+008	2.025929424497816E+000	0.000000000000000E+000	2.025929424497816E+000	0.0000000E+000	0.000000000000000E+000	3.4267777E-001	-8.5361567E+000
1	0	0	0	0	0	0	4.023641898354254E+002	-1.0000000E+002	-3.4283125E+000	-9.9899460E+001	-7.3932743E+000	-7.3932743E+000	0	-2.053687307569716E+000	37	5.1102724E+000	0.000000000000000E+000	7.065988755531341E-003	0.000000000000000E+000	3.507996877722094E+008	2.053687307569716E+000	0.000000000000000E+000	2.053687307569716E+000	0.0000000E+000	0.000000000000000E+000	3.4248656E-001	-8.5385847E+000
1	0	0	0	0	0	0	4.033641898101632E+002	-1.0000000E+002	-3.4323447E+000	-9.9949081E+001	-7.4932079E+000	-7.4932079E+000	0	-2.081446647644043E+000	37	5.1092262E+000	0.000000000000000E+000	7.161268378618752E-003	0.000000000000000E+000	4.396557599496398E+008	2.081446647644043E+000	0.000000000000000E+000	2.081446647644043E+000	0.0000000E+000	0.000000000000000E+000	3.4305969E-001	-8.5415707E+000
1	0	0	0	0	0	0	4.043641897849011E+002	-1.0000000E+002	-3.4307461E+000	-9.9945267E+001	-7.5931458E+000	-7.5931458E+000	0	-2.109207179811266E+000	37	5.1107640E+000	0.000000000000000E+000	7.256507715488281E-003	0.000000000000000E+000	4.073150274971224E+008	2.109207179811266E+000	0.000000000000000E+000	2.109207179811266E+000	0.0000000E+000	0.000000000000000E+000	3.4288684E-001	-8.5415096E+000
1	0	0	0	0	0	0	4.053641897596390E+002	-1.0000000E+002	-3.4343305E+000	-9.9922371E+001	-7.6930857E+000	-7.6930857E+000	0	-2.136968241797553E+000	37	5.1126194E+000	0.000000000000000E+000	7.351848376364384E-003	0.000000000000000E+000	5.109117106846539E+008	2.136968241797553E+000	0.000000000000000E+000	2.136968241797553E+000	0.0000000E+000	0.000000000000000E+000	3.4316644E-001	-8.5469494E+000
1	0	0	0	0	0	0	4.063641897343769E+002	-1.0000000E+002	-3.4281564E+000	-9.9941452E+001	-7.7930250E+000	-7.7930250E+000	0	-2.164729171329074E+000	37	5.1156678E+000	0.000000000000000E+000	7.447017183938364E-003	0.000000000000000E+000	3.670475227956699E+008	2.164729171329074E+000	0.000000000000000E+000	2.164729171329074E+000	0.0000000E+000	0.000000000000000E+000	3.4261492E-001	-8.5438242E+000
1	0	0	0	0	0	0	4.073641897091147E+002	-1.0000000E+002	-3.4317102E+000	-9.9941444E+001	-7.8929577E+000	-7.8929577E+000	0	-2.192488246493869E+000	37	5.1191669E+000	0.000000000000000E+000	7.542278286523846E-003	0.000000000000000E+000	4.464902219944434E+008	2.192488246493869E+000	0.000000000000000E+000	2.192488246493869E+000	0.0000000E+000	0.000000000000000E+000	3.4297007E-001	-8.5508766E+000
1	0	0	0	0	0	0	4.083641896838526E+002	-1.0000000E+002	-3.4315193E+000	-9.9884186E+001	-7.9928927E+000	-7.9928927E+000	0	-2.220247983932495E+000	37	5.1220737E+000	0.000000000000000E+000	7.637536360473055E-003	0.000000000000000E+000	4.473110598156030E+008	2.220247983932495E+000	0.000000000000000E+000	2.220247983932495E+000	0.0000000E+000	0.000000000000000E+000	3.4275451E-001	-8.5535927E+000
1	0	0	0	0	0	0	4.093641896585905E+002	-1.0000000E+002	-3.4278464E+000	-9.9899467E+001	-8.0928297E+000	-8.0928297E+000	0	-2.248008251190186E+000	37	5.1235042E+000	0.000000000000000E+000	7.732694293536261E-003	0.000000000000000E+000	3.756838586860280E+008	2.248008251190186E+000	0.000000000000000E+000	2.248008251190186E+000	0.0000000E+000	0.000000000000000E+000	3.4244004E-001	-8.5513506E+000
1	0	0	0	0	0	0	4.103641896333284E+002	-1.0000000E+002	-3.4275062E+000	-9.9933815E+001	-8.1927605E+000	-8.1927605E+000	0	-2.275766796535916E+000	37	5.1184449E+000	0.000000000000000E+000	7.827836880045454E-003	0.000000000000000E+000	3.744094836509441E+008	2.275766796535916E+000	0.000000000000000E+000	2.275766796535916E+000	0.0000000E+000	0.000000000000000E+000	3.4252378E-001	-8.5459509E+000
1	0	0	0	0	0	0	4.113641896080662E+002	-1.0000000E+002	-3.4268699E+000	-9.9910912E+001	-8.2926807E+000	-8.2926807E+000	0	-2.303522427876791E+000	37	5.1208467E+000	0.000000000000000E+000	7.922951816789014E-003	0.000000000000000E+000	3.682663899712011E+008	2.303522427876791E+000	0.000000000000000E+000	2.303522427876791E+000	0.0000000E+000	0.000000000000000E+000	3.4238169E-001	-8.5477161E+000
1	0	0	0	0	0	0	4.123641895828041E+002	-1.0000000E+002	-3.4289348E+000	-9.9910912E+001	-8.3926001E+000	-8.3926001E+000	0	-2.331277794308133E+000	37	5.1232691E+000	0.000000000000000E+000	8.018123158980407E-003	0.000000000000000E+000	4.103315887022510E+008	2.331277794308133E+000	0.000000000000000E+000	2.331277794308133E+000	0.0000000E+000	0.000000000000000E+000	3.4258801E-001	-8.5522041E+000
1	0	0	0	0	0	0	4.133641895575420E+002	-1.0000000E+002	-3.4283714E+000	-9.9907097E+001	-8.4925194E+000	-8.4925194E+000	0	-2.359033160739475E+000	37	5.1260610E+000	0.000000000000000E+000	8.113278864267352E-003	0.000000000000000E+000	4.040863074305162E+008	2.359033160739475E+000	0.000000000000000E+000	2.359033160739475E+000	0.0000000E+000	0.000000000000000E+000	3.4251863E-001	-8.5544319E+000
1	0	0	0	0	0	0	4.143641895322799E+002	-1.0000000E+002	-3.4288704E+000	-9.9880363E+001	-8.5924406E+000	-8.5924406E+000	0	-2.386789056989882E+000	37	5.1152530E+000	0.000000000000000E+000	8.208450236443017E-003	0.000000000000000E+000	4.187841546881717E+008	2.386789056989882E+000	0.000000000000000E+000	2.386789056989882E+000	0.0000000E+000	0.000000000000000E+000	3.4247681E-001	-8.5441236E+000
1	0	0	0	0	0	0	4.153641895070177E+002	-1.0000000E+002	-3.4301543E+000	-9.9929993E+001	-8.6923656E+000	-8.6923656E+000	0	-2.414546012878418E+000	37	5.1016984E+000	0.000000000000000E+000	8.303660878693440E-003	0.000000000000000E+000	4.519340539468465E+008	2.414546012878418E+000	0.000000000000000E+000	2.414546012878418E+000	0.0000000E+000	0.000000000000000E+000	3.4277529E-001	-8.5318527E+000
1	0	0	0	0	0	0	4.163641894817556E+002	-1.0000000E+002	-3.4305844E+000	-9.9949081E+001	-8.7922916E+000	-8.7922916E+000	0	-2.442303233676487E+000	37	5.1028075E+000	0.000000000000000E+000	8.398884368202646E-003	0.000000000000000E+000	4.675856367601562E+008	2.442303233676487E+000	0.000000000000000E+000	2.442303233676487E+000	0.0000000E+000	0.000000000000000E+000	3.4288377E-001	-8.5333920E+000
1	0	0	0	0	0	0	4.173641894564935E+002	-1.0000000E+002	-3.4295554E+000	-9.9914734E+001	-8.8922243E+000	-8.8922243E+000	0	-2.470062308841281E+000	37	5.1057067E+000	0.000000000000000E+000	8.494085654780196E-003	0.000000000000000E+000	4.483637718792076E+008	2.470062308841281E+000	0.000000000000000E+000	2.470062308841281E+000	0.0000000E+000	0.000000000000000E+000	3.4266311E-001	-8.5352621E+000
1	0	0	0	0	0	0	4.183641894312314E+002	-1.0000000E+002	-3.4292021E+000	-9.9891815E+001	-8.9921494E+000	-8.9921494E+000	0	-2.497819264729818E+000	37	5.1074729E+000	0.000000000000000E+000	8.589269865641331E-003	0.000000000000000E+000	4.454658068173766E+008	2.497819264729818E+000	0.000000000000000E+000	2.497819264729818E+000	0.0000000E+000	0.000000000000000E+000	3.4254923E-001	-8.5366745E+000
1	0	0	0	0	0	0	4.193641894059692E+002	-1.0000000E+002	-3.4270203E+000	-9.9922363E+001	-9.0920601E+000	-9.0920601E+000	0	-2.525572246975369E+000	37	5.1104956E+000	0.000000000000000E+000	8.684379899497526E-003	0.000000000000000E+000	4.064813839709221E+008	2.525572246975369E+000	0.000000000000000E+000	2.525572246975369E+000	0.0000000E+000	0.000000000000000E+000	3.4243596E-001	-8.5375156E+000
1	0	0	0	0	0	0	4.203641893807071E+002	-1.0000000E+002	-3.4275806E+000	-9.9929993E+001	-9.1919622E+000	-9.1919622E+000	0	-2.553322845035129E+000	37	5.1064701E+000	0.000000000000000E+000	8.779497310907261E-003	0.000000000000000E+000	4.215059420337389E+008	2.553322845035129E+000	0.000000000000000E+000	2.553322845035129E+000	0.0000000E+000	0.000000000000000E+000	3.4251809E-001	-8.5340509E+000
1	0	0	0	0	0	0	4.213641893554450E+002	-1.0000000E+002	-3.4284937E+000	-9.9922363E+001	-9.2918663E+000	-9.2918663E+000	0	-2.581073972913954E+000	37	5.1093574E+000	0.000000000000000E+000	8.874641879067089E-003	0.000000000000000E+000	4.447084222417472E+008	2.581073972913954E+000	0.000000000000000E+000	2.581073972913954E+000	0.0000000E+000	0.000000000000000E+000	3.4258321E-001	-8.5378513E+000
1	0	0	0	0	0	0	4.223641893301829E+002	-1.0000000E+002	-3.4294312E+000	-9.9922363E+001	-9.3917732E+000	-9.3917732E+000	0	-2.608825895521376E+000	37	5.1117921E+000	0.000000000000000E+000	8.969815188317729E-003	0.000000000000000E+000	4.706045278059853E+008	2.608825895521376E+000	0.000000000000000E+000	2.608825895521376E+000	0.0000000E+000	0.000000000000000E+000	3.4267688E-001	-8.5412235E+000
1	0	0	0	0	0	0	4.233641893049207E+002	-1.0000000E+002	-3.4314613E+000	-9.9891815E+001	-9.4916773E+000	-9.4916773E+000	0	-2.636577023400201E+000	37	5.1135101E+000	0.000000000000000E+000	9.065042110615148E-003	0.000000000000000E+000	5.294717382630669E+008	2.636577023400201E+000	0.000000000000000E+000	2.636577023400201E+000	0.0000000E+000	0.000000000000000E+000	3.4277490E-001	-8.5449715E+000
1	0	0	0	0	0	0	4.243641892796586E+002	-1.0000000E+002	-3.4261169E+000	-9.9945267E+001	-9.5915775E+000	-9.5915775E+000	0	-2.664327091640896E+000	37	5.1144924E+000	0.000000000000000E+000	9.160117089593973E-003	0.000000000000000E+000	4.121672028358912E+008	2.664327091640896E+000	0.000000000000000E+000	2.664327091640896E+000	0.0000000E+000	0.000000000000000E+000	3.4242418E-001	-8.5406094E+000
1	0	0	0	0	0	0	4.253641892543965E+002	-1.0000000E+002	-3.4242699E+000	-9.9918549E+001	-9.6914768E+000	-9.6914768E+000	0	-2.692076894972059E+000	37	5.1118608E+000	0.000000000000000E+000	9.255139906277693E-003	0.000000000000000E+000	3.858361888128482E+008	2.692076894972059E+000	0.000000000000000E+000	2.692076894972059E+000	0.0000000E+000	0.000000000000000E+000	3.4214807E-001	-8.5361309E+000
1	0	0	0	0	0	0	4.263641892291344E+002	-1.0000000E+002	-3.4238267E+000	-9.9918541E+001	-9.7913857E+000	-9.7913857E+000	0	-2.719829347398546E+000	37	5.1147637E+000	0.000000000000000E+000	9.350159493733022E-003	0.000000000000000E+000	3.830545834421520E+008	2.719829347398546E+000	0.000000000000000E+000	2.719829347398546E+000	0.0000000E+000	0.000000000000000E+000	3.4210378E-001	-8.5385904E+000
1	0	0	0	0	0	0	4.273641892038722E+002	-1.0000000E+002	-3.4241409E+000	-9.9933815E+001	-9.8912935E+000	-9.8912935E+000	0	-2.747581534915500E+000	37	5.1157727E+000	0.000000000000000E+000	9.445186894911738E-003	0.000000000000000E+000	3.917794398171757E+008	2.747581534915500E+000	0.000000000000000E+000	2.747581534915500E+000	0.0000000E+000	0.000000000000000E+000	3.4218746E-001	-8.5399132E+000
1	0	0	0	0	0	0	4.283641891786101E+002	-1.0000000E+002	-3.4237754E+000	-9.9891815E+001	-9.9912062E+000	-9.9912062E+000	0	-2.775335046980116E+000	37	5.1181931E+000	0.000000000000000E+000	9.540208687739502E-003	0.000000000000000E+000	3.900896050341161E+008	2.775335046980116E+000	0.000000000000000E+000	2.775335046980116E+000	0.0000000E+000	0.000000000000000E+000	3.4200713E-001	-8.5419683E+000
1	0	0	0	0	0	0	4.293641891533480E+002	-1.0000000E+002	-3.4231582E+000	-9.9933815E+001	-1.0091117E+001	-1.0091117E+001	0	-2.803088029225667E+000	37	5.1207500E+000	0.000000000000000E+000	9.635211535621722E-003	0.000000000000000E+000	3.847186954624782E+008	2.803088029225667E+000	0.000000000000000E+000	2.803088029225667E+000	0.0000000E+000	0.000000000000000E+000	3.4208927E-001	-8.5439081E+000
1	0	0	0	0	0	0	4.303641891280859E+002	-1.0000000E+002	-3.4249513E+000	-9.9941452E+001	-1.0191027E+001	-1.0191027E+001	0	-2.830840746561686E+000	37	5.1219244E+000	0.000000000000000E+000	9.730263241354493E-003	0.000000000000000E+000	4.170375530513684E+008	2.830840746561686E+000	0.000000000000000E+000	2.830840746561686E+000	0.0000000E+000	0.000000000000000E+000	3.4229460E-001	-8.5468760E+000
1	0	0	0	0	0	0	4.313641891028237E+002	-1.0000000E+002	-3.4233298E+000	-9.9926186E+001	-1.0290936E+001	-1.0290936E+001	0	-2.858593198988173E+000	37	5.1152592E+000	0.000000000000000E+000	9.825269039606449E-003	0.000000000000000E+000	3.949212413995022E+008	2.858593198988173E+000	0.000000000000000E+000	2.858593198988173E+000	0.0000000E+000	0.000000000000000E+000	3.4208030E-001	-8.5385895E+000
1	0	0	0	0	0	0	4.323641890775616E+002	-1.0000000E+002	-3.4239192E+000	-9.9891823E+001	-1.0390841E+001	-1.0390841E+001	0	-2.886344856686062E+000	37	5.1134663E+000	0.000000000000000E+000	9.920288473254981E-003	0.000000000000000E+000	4.079827379615068E+008	2.886344856686062E+000	0.000000000000000E+000	2.886344856686062E+000	0.0000000E+000	0.000000000000000E+000	3.4202152E-001	-8.5373859E+000
1	0	0	0	0	0	0	4.333641890522995E+002	-1.0000000E+002	-3.4235258E+000	-9.9937637E+001	-1.0490748E+001	-1.0490748E+001	0	-2.914096779293484E+000	37	5.1169448E+000	0.000000000000000E+000	1.001529789658532E-002	0.000000000000000E+000	4.056399505872375E+008	2.914096779293484E+000	0.000000000000000E+000	2.914096779293484E+000	0.0000000E+000	0.000000000000000E+000	3.4213910E-001	-8.5404701E+000
1	0	0	0	0	0	0	4.343641890270374E+002	-1.0000000E+002	-3.4238636E+000	-9.9941452E+001	-1.0590652E+001	-1.0590652E+001	0	-2.941847907172309E+000	37	5.1196389E+000	0.000000000000000E+000	1.011031397455860E-002	0.000000000000000E+000	4.149230409968522E+008	2.941847907172309E+000	0.000000000000000E+000	2.941847907172309E+000	0.0000000E+000	0.000000000000000E+000	3.4218591E-001	-8.5435028E+000
1	0	0	0	0	0	0	4.353641890017752E+002	-1.0000000E+002	-3.4225497E+000	-9.9914726E+001	-1.0690556E+001	-1.0690556E+001	0	-2.969598770141602E+000	37	5.1215973E+000	0.000000000000000E+000	1.020529268297098E-002	0.000000000000000E+000	3.983320304171700E+008	2.969598770141602E+000	0.000000000000000E+000	2.969598770141602E+000	0.0000000E+000	0.000000000000000E+000	3.4196311E-001	-8.5441475E+000
1	0	0	0	0	0	0	4.363641889765131E+002	-1.0000000E+002	-3.4231989E+000	-9.9888000E+001	-1.0790462E+001	-1.0790462E+001	0	-2.997350692749023E+000	37	5.1271911E+000	0.000000000000000E+000	1.030029303497842E-002	0.000000000000000E+000	4.120213027447767E+008	2.997350692749023E+000	0.000000000000000E+000	2.997350692749023E+000	0.0000000E+000	0.000000000000000E+000	3.4193650E-001	-8.5503902E+000
1	0	0	0	0	0	0	4.373641889512510E+002	-1.0000000E+002	-3.4233673E+000	-9.9910912E+001	-1.0890369E+001	-1.0890369E+001	0	-3.025102615356445E+000	37	5.1278977E+000	0.000000000000000E+000	1.039529805828708E-002	0.000000000000000E+000	4.185260997443627E+008	3.025102615356445E+000	0.000000000000000E+000	3.025102615356445E+000	0.0000000E+000	0.000000000000000E+000	3.4203175E-001	-8.5512648E+000
1	0	0	0	0	0	0	4.383641889259889E+002	-1.0000000E+002	-3.4260383E+000	-9.9956718E+001	-1.0990280E+001	-1.0990280E+001	0	-3.052855597601996E+000	37	5.1263409E+000	0.000000000000000E+000	1.049038083743454E-002	0.000000000000000E+000	4.706806077438327E+008	3.052855597601996E+000	0.000000000000000E+000	3.052855597601996E+000	0.0000000E+000	0.000000000000000E+000	3.4245554E-001	-8.5523796E+000
1	0	0	0	0	0	0	4.393641889007267E+002	-1.0000000E+002	-3.4238770E+000	-9.9933815E+001	-1.1090189E+001	-1.1090189E+001	0	-3.080608050028483E+000	37	5.1280422E+000	0.000000000000000E+000	1.058540182101363E-002	0.000000000000000E+000	4.347213951271483E+008	3.080608050028483E+000	0.000000000000000E+000	3.080608050028483E+000	0.0000000E+000	0.000000000000000E+000	3.4216109E-001	-8.5519190E+000
1	0	0	0	0	0	0	4.403641888754646E+002	-1.0000000E+002	-3.4217558E+000	-9.9930000E+001	-1.1190093E+001	-1.1190093E+001	0	-3.108359177907308E+000	37	5.1265783E+000	0.000000000000000E+000	1.068035940353174E-002	0.000000000000000E+000	4.049651590191376E+008	3.108359177907308E+000	0.000000000000000E+000	3.108359177907308E+000	0.0000000E+000	0.000000000000000E+000	3.4193605E-001	-8.5483341E+000
1	0	0	0	0	0	0	4.413641888502025E+002	-1.0000000E+002	-3.4206457E+000	-9.9891815E+001	-1.1289995E+001	-1.1289995E+001	0	-3.136109775967068E+000	37	5.1284914E+000	0.000000000000000E+000	1.077528436784042E-002	0.000000000000000E+000	3.928005043383048E+008	3.136109775967068E+000	0.000000000000000E+000	3.136109775967068E+000	0.0000000E+000	0.000000000000000E+000	3.4169450E-001	-8.5491371E+000
1	0	0	0	0	0	0	4.423641888249404E+002	-1.0000000E+002	-3.4231775E+000	-9.9895638E+001	-1.1389891E+001	-1.1389891E+001	0	-3.163858519660102E+000	37	5.1305842E+000	0.000000000000000E+000	1.087027324236806E-002	0.000000000000000E+000	4.345537272024378E+008	3.163858519660102E+000	0.000000000000000E+000	3.163858519660102E+000	0.0000000E+000	0.000000000000000E+000	3.4196049E-001	-8.5537615E+000
1	0	0	0	0	0	0	4.433641887996782E+002	-1.0000000E+002	-3.4212987E+000	-9.9861282E+001	-1.1489790E+001	-1.1489790E+001	0	-3.191608322991265E+000	37	5.1312408E+000	0.000000000000000E+000	1.096521360960389E-002	0.000000000000000E+000	4.090452998344863E+008	3.191608322991265E+000	0.000000000000000E+000	3.191608322991265E+000	0.0000000E+000	0.000000000000000E+000	3.4165528E-001	-8.5525398E+000
1	0	0	0	0	0	0	4.443641887744161E+002	-1.0000000E+002	-3.4232340E+000	-9.9895638E+001	-1.1589685E+001	-1.1589685E+001	0	-3.219357066684299E+000	37	5.1336904E+000	0.000000000000000E+000	1.106020405207993E-002	0.000000000000000E+000	4.431317252821382E+008	3.219357066684299E+000	0.000000000000000E+000	3.219357066684299E+000	0.0000000E+000	0.000000000000000E+000	3.4196615E-001	-8.5569248E+000
1	0	0	0	0	0	0	4.453641887491540E+002	-1.0000000E+002	-3.4248250E+000	-9.9903282E+001	-1.1689578E+001	-1.1689578E+001	0	-3.247105015648736E+000	37	5.1324735E+000	0.000000000000000E+000	1.115523592009010E-002	0.000000000000000E+000	4.759004513467605E+008	3.247105015648736E+000	0.000000000000000E+000	3.247105015648736E+000	0.0000000E+000	0.000000000000000E+000	3.4215125E-001	-8.5572987E+000
1	0	0	0	0	0	0	4.463641887238919E+002	-1.0000000E+002	-3.4219849E+000	-9.9903275E+001	-1.1789474E+001	-1.1789474E+001	0	-3.274854024251302E+000	37	5.1357946E+000	0.000000000000000E+000	1.125019260882232E-002	0.000000000000000E+000	4.302238617677510E+008	3.274854024251302E+000	0.000000000000000E+000	3.274854024251302E+000	0.0000000E+000	0.000000000000000E+000	3.4186751E-001	-8.5577793E+000
1	0	0	0	0	0	0	4.473641886986297E+002	-1.0000000E+002	-3.4202068E+000	-9.9903275E+001	-1.1889377E+001	-1.1889377E+001	0	-3.302604622311062E+000	37	5.1366982E+000	0.000000000000000E+000	1.134510539259973E-002	0.000000000000000E+000	4.074321663466645E+008	3.302604622311062E+000	0.000000000000000E+000	3.302604622311062E+000	0.0000000E+000	0.000000000000000E+000	3.4168985E-001	-8.5569048E+000
1	0	0	0	0	0	0	4.473645886986196E+002	-1.0000000E+002	-3.5944343E+000	-9.9918549E+001	-1.1889417E+001	-1.1889417E+001	0	-3.302615748511420E+000	37	4.9597797E+000	0.000000000000000E+000	1.134514538499549E-002	0.000000000000000E+000	8.196984062278095E+007	3.302615748511420E+000	0.000000000000000E+000	3.302615748511420E+000	0.0000000E+000	0.000000000000000E+000	3.5915065E-001	-8.5542145E+000